Data from QEP013861_14-43-55-728.txt Node
Date: Tue Jul 09 14:43:55 EDT 2019
User: xiyang
Spectrometer: QEP01386
Trigger mode: 4
Integration Time (sec): 2.000000E-1
Scans to average: 1
Electric dark correction enabled: false
Nonlinearity correction enabled: false
Boxcar width: 0
XAxis mode: Wavelengths
Number of Pixels in Spectrum: 1044
>>>>>Begin Spectral Data<<<<<
629.243	1696
629.421	1685
629.599	1686
629.777	1687
629.955	14633
630.132	14660
630.31	14948
630.488	15260
630.666	15353
630.843	15332
631.021	15283
631.199	15190
631.376	15055
631.554	14876
631.731	15010
631.909	15152
632.086	15586
632.264	15759
632.441	15912
632.618	15994
632.796	15966
632.973	15990
633.15	15948
633.327	15830
633.504	15741
633.682	15767
633.859	15964
634.036	16221
634.213	16164
634.39	16143
634.567	16375
634.744	16467
634.921	16579
635.098	16643
635.274	16607
635.451	16463
635.628	16485
635.805	16338
635.982	16312
636.158	16404
636.335	16588
636.511	16846
636.688	16924
636.865	16997
637.041	17006
637.218	17127
637.394	17223
637.571	17261
637.747	17216
637.923	17142
638.1	17226
638.276	17248
638.452	17429
638.628	17470
638.805	17385
638.981	17227
639.157	17118
639.333	16961
639.509	17110
639.685	17058
639.861	16885
640.037	16834
640.213	17375
640.389	17324
640.565	17061
640.74	16949
640.916	16945
641.092	17065
641.268	17005
641.443	17172
641.619	17179
641.795	17047
641.97	16894
642.146	17225
642.321	17449
642.497	17431
642.672	17431
642.848	17344
643.023	17095
643.199	17219
643.374	17300
643.549	17225
643.724	16999
643.9	16904
644.075	17340
644.25	17478
644.425	17416
644.6	17213
644.775	16847
644.95	16790
645.125	16945
645.3	16954
645.475	16822
645.65	16721
645.825	16748
646	16521
646.175	16332
646.349	16345
646.524	16690
646.699	16522
646.874	16303
647.048	16220
647.223	16107
647.397	16064
647.572	16008
647.746	16253
647.921	16199
648.095	16052
648.27	16037
648.444	16225
648.618	16573
648.793	16426
648.967	16138
649.141	15472
649.315	15014
649.49	14993
649.664	15407
649.838	16194
650.012	16488
650.186	16675
650.36	16669
650.534	16792
650.708	16754
650.882	16596
651.056	16530
651.23	16125
651.403	15526
651.577	15306
651.751	15510
651.925	16149
652.098	16401
652.272	16373
652.446	16371
652.619	16465
652.793	16476
652.966	16465
653.14	16210
653.313	16186
653.487	16273
653.66	16558
653.833	16507
654.007	16346
654.18	16057
654.353	15756
654.526	15701
654.7	15628
654.873	15784
655.046	15660
655.219	15363
655.392	15238
655.565	14961
655.738	14515
655.911	13305
656.084	11642
656.257	11215
656.43	12957
656.602	14528
656.775	14863
656.948	14975
657.121	15118
657.293	15102
657.466	15242
657.639	15567
657.811	15828
657.984	15690
658.156	15511
658.329	15492
658.501	15416
658.674	15470
658.846	15579
659.018	15367
659.191	14965
659.363	14924
659.535	15131
659.707	15137
659.88	15135
660.052	15315
660.224	15184
660.396	15150
660.568	14966
660.74	14863
660.912	14839
661.084	14974
661.256	14902
661.428	14927
661.6	14827
661.771	14864
661.943	14723
662.115	14728
662.287	14576
662.458	14459
662.63	14405
662.802	14371
662.973	14181
663.145	13946
663.316	13707
663.488	13805
663.659	13962
663.831	13950
664.002	13778
664.174	13696
664.345	13607
664.516	13692
664.687	13757
664.859	13601
665.03	13681
665.201	13603
665.372	13521
665.543	13429
665.714	13496
665.885	13263
666.056	13075
666.227	12939
666.398	12875
666.569	12967
666.74	13034
666.911	13020
667.082	12898
667.252	12886
667.423	12828
667.594	12547
667.764	12371
667.935	12595
668.106	12683
668.276	12640
668.447	12606
668.617	12614
668.788	12447
668.958	12514
669.129	12474
669.299	12409
669.469	12178
669.64	12144
669.81	12169
669.98	12268
670.15	12188
670.321	12020
670.491	12029
670.661	12061
670.831	12028
671.001	11924
671.171	11890
671.341	11812
671.511	11717
671.681	11542
671.851	11575
672.02	11742
672.19	11849
672.36	11773
672.53	11759
672.699	11697
672.869	11778
673.039	11807
673.208	11654
673.378	11704
673.547	11759
673.717	11658
673.886	11613
674.056	11715
674.225	11678
674.395	11643
674.564	11576
674.733	11590
674.903	11432
675.072	11517
675.241	11562
675.41	11579
675.579	11629
675.748	11668
675.917	11552
676.087	11614
676.256	11704
676.425	11589
676.593	11458
676.762	11409
676.931	11556
677.1	11525
677.269	11605
677.438	11723
677.606	11679
677.775	11676
677.944	11670
678.112	11643
678.281	11591
678.45	11500
678.618	11548
678.787	11731
678.955	11700
679.124	11725
679.292	11671
679.46	11701
679.629	11765
679.797	11756
679.965	11804
680.134	11789
680.302	11791
680.47	11762
680.638	11822
680.806	11859
680.974	11886
681.142	11898
681.31	11996
681.478	12063
681.646	12182
681.814	12203
681.982	12176
682.15	12313
682.318	12358
682.486	12448
682.653	12433
682.821	12377
682.989	12605
683.156	12624
683.324	12764
683.492	12816
683.659	12805
683.827	12678
683.994	12665
684.162	12585
684.329	12952
684.496	13291
684.664	13465
684.831	13495
684.998	13683
685.166	13673
685.333	13746
685.5	13644
685.667	13819
685.834	14080
686.001	14230
686.168	14333
686.335	14507
686.502	14085
686.669	11591
686.836	10164
687.003	10781
687.17	11293
687.337	11948
687.504	12603
687.67	13362
687.837	14155
688.004	15173
688.17	15477
688.337	15303
688.504	14905
688.67	15031
688.837	14921
689.003	15442
689.17	15360
689.336	15800
689.502	15749
689.669	16185
689.835	16882
690.001	16490
690.168	17570
690.334	16975
690.5	17505
690.666	18331
690.832	17874
690.998	18889
691.164	18917
691.33	18276
691.496	19340
691.662	19546
691.828	19607
691.994	20593
692.16	20372
692.326	19512
692.492	20451
692.657	21044
692.823	20068
692.989	20166
693.155	20876
693.32	20855
693.486	21942
693.651	21969
693.817	21009
693.982	20476
694.148	21090
694.313	22112
694.479	23460
694.644	22712
694.809	22584
694.975	23694
695.14	24218
695.305	24446
695.47	24080
695.635	23864
695.801	25023
695.966	24692
696.131	25655
696.296	26882
696.461	26931
696.626	28049
696.791	28575
696.955	28282
697.12	28402
697.285	29018
697.45	28885
697.615	28035
697.779	27560
697.944	28695
698.109	29432
698.273	30303
698.438	29762
698.603	28710
698.767	28227
698.932	28611
699.096	29758
699.26	29017
699.425	30097
699.589	31783
699.754	29874
699.918	29758
700.082	31569
700.246	31284
700.411	28612
700.575	29977
700.739	32267
700.903	32435
701.067	31512
701.231	32894
701.395	32616
701.559	29539
701.723	31912
701.887	33670
702.051	33999
702.214	32241
702.378	32375
702.542	32766
702.706	31605
702.869	34603
703.033	36149
703.197	36560
703.36	36459
703.524	36171
703.687	34419
703.851	33786
704.014	35896
704.178	37457
704.341	37599
704.505	37773
704.668	37701
704.831	37966
704.994	36833
705.158	35832
705.321	37018
705.484	37954
705.647	37589
705.81	38116
705.973	37925
706.136	38476
706.299	38604
706.462	38479
706.625	38640
706.788	38785
706.951	39931
707.114	39820
707.277	40091
707.439	40493
707.602	40674
707.765	39613
707.928	40270
708.09	41158
708.253	40939
708.415	40297
708.578	40641
708.74	40215
708.903	40561
709.065	40869
709.228	41517
709.39	41556
709.552	41743
709.715	41956
709.877	42026
710.039	42189
710.201	42662
710.364	43142
710.526	42834
710.688	42904
710.85	42854
711.012	42601
711.174	42854
711.336	43296
711.498	43506
711.66	43487
711.822	43144
711.983	43504
712.145	42505
712.307	43757
712.469	44498
712.63	44270
712.792	43451
712.954	42845
713.115	43282
713.277	44145
713.438	44983
713.6	44997
713.761	44919
713.923	45160
714.084	45033
714.245	44398
714.407	44798
714.568	44253
714.729	41935
714.891	43106
715.052	43024
715.213	44877
715.374	45372
715.535	44428
715.696	44756
715.857	44141
716.018	44976
716.179	43739
716.34	40491
716.501	38574
716.662	35984
716.823	37141
716.984	35435
717.144	34691
717.305	31351
717.466	36078
717.626	31008
717.787	34592
717.948	39116
718.108	34645
718.269	36703
718.429	30572
718.59	25628
718.75	33045
718.911	40094
719.071	32556
719.231	29785
719.392	32751
719.552	36523
719.712	34085
719.872	35215
720.033	29199
720.193	35040
720.353	34378
720.513	34369
720.673	36613
720.833	40775
720.993	42377
721.153	45061
721.313	46916
721.473	44841
721.632	42846
721.792	44161
721.952	46597
722.112	46858
722.271	42413
722.431	44936
722.591	44574
722.75	42968
722.91	46218
723.069	43045
723.229	35020
723.388	31644
723.548	35816
723.707	43850
723.867	40885
724.026	35466
724.185	39715
724.344	36766
724.504	38510
724.663	40726
724.822	42742
724.981	41202
725.14	34395
725.299	32577
725.458	43216
725.617	42141
725.776	41004
725.935	42311
726.094	39692
726.253	39832
726.412	35049
726.571	40359
726.729	46675
726.888	44097
727.047	45068
727.206	40779
727.364	40718
727.523	34270
727.681	31129
727.84	39795
727.998	44305
728.157	44100
728.315	46738
728.474	48212
728.632	42760
728.79	38778
728.949	35352
729.107	35445
729.265	38691
729.423	40797
729.582	45638
729.74	48172
729.898	44077
730.056	43328
730.214	37878
730.372	38284
730.53	45261
730.688	46635
730.846	40681
731.004	40099
731.161	42573
731.319	46208
731.477	45674
731.635	41945
731.792	40545
731.95	46455
732.108	49900
732.265	50076
732.423	49166
732.58	46580
732.738	47748
732.895	49704
733.053	48673
733.21	46863
733.368	46953
733.525	49620
733.682	52791
733.839	53328
733.997	52653
734.154	52723
734.311	49589
734.468	50453
734.625	51920
734.782	49373
734.939	48311
735.096	50687
735.253	51002
735.41	50652
735.567	49490
735.724	50747
735.881	50757
736.038	48960
736.194	49229
736.351	49057
736.508	50046
736.665	51098
736.821	49150
736.978	50464
737.134	51658
737.291	52314
737.447	52586
737.604	52607
737.76	52539
737.917	53485
738.073	51842
738.229	50126
738.386	51117
738.542	51351
738.698	51073
738.854	49815
739.01	50314
739.167	51443
739.323	52247
739.479	52144
739.635	51761
739.791	53047
739.947	52579
740.103	52713
740.259	53775
740.414	53307
740.57	52613
740.726	52375
740.882	50663
741.038	50775
741.193	53200
741.349	52326
741.505	51338
741.66	53189
741.816	53553
741.971	53714
742.127	52157
742.282	51577
742.438	52883
742.593	54414
742.748	54868
742.904	54718
743.059	54299
743.214	54590
743.37	54750
743.525	54674
743.68	54760
743.835	54465
743.99	53480
744.145	53728
744.3	53980
744.455	52855
744.61	53171
744.765	53926
744.92	54333
745.075	54561
745.23	54831
745.384	54703
745.539	54929
745.694	54909
745.849	54884
746.003	54213
746.158	53011
746.313	53939
746.467	54699
746.622	55147
746.776	55205
746.931	55336
747.085	55095
747.239	54886
747.394	54969
747.548	54668
747.702	54792
747.857	55094
748.011	54700
748.165	54589
748.319	54708
748.473	54848
748.627	54986
748.781	54845
748.935	54520
749.089	53503
749.243	53595
749.397	51568
749.551	52946
749.705	54054
749.859	54433
750.013	54704
750.166	54807
750.32	54623
750.474	54341
750.628	53791
750.781	54190
750.935	52772
751.088	52284
751.242	54000
751.395	54309
751.549	54541
751.702	54849
751.856	54772
752.009	54627
752.162	53436
752.316	53234
752.469	53097
752.622	53992
752.775	54156
752.928	53486
753.082	52706
753.235	53575
753.388	54097
753.541	54478
753.694	54317
753.847	54318
754	54154
754.152	54225
754.305	54127
754.458	53737
754.611	53329
754.764	53961
754.916	54214
755.069	54106
755.222	54215
755.374	53209
755.527	52850
755.68	53592
755.832	53523
755.985	53852
756.137	54036
756.289	53992
756.442	54021
756.594	53696
756.746	52903
756.899	52945
757.051	53657
757.203	53115
757.355	52608
757.508	53396
757.66	53644
757.812	53537
757.964	53353
758.116	52981
758.268	52008
758.42	51261
758.572	50943
758.724	51794
758.875	52404
759.027	52094
759.179	48455
759.331	35585
759.482	24725
759.634	21007
759.786	18620
759.937	15545
760.089	13012
760.241	11723
760.392	11160
760.544	11305
760.695	12470
760.846	13358
760.998	16282
761.149	17952
761.3	23327
761.452	25580
761.603	34092
761.754	41887
761.905	39461
762.057	34673
762.208	29595
762.359	25872
762.51	28171
762.661	22491
762.812	26641
762.963	25370
763.114	22408
763.265	29134
763.415	24551
763.566	24738
763.717	31895
763.868	25770
764.018	27508
764.169	35093
764.32	29079
764.47	29867
764.621	38079
764.772	33969
764.922	31308
765.072	39644
765.223	39572
765.373	33663
765.524	39028
765.674	42518
765.824	37601
765.975	36938
766.125	43759
766.275	43909
766.425	39141
766.575	42776
766.726	47286
766.876	46166
767.026	43378
767.176	46207
767.326	49137
767.476	48377
767.625	45987
767.775	47999
767.925	48822
768.075	49067
768.225	47811
768.375	49039
768.524	50484
768.674	50421
768.824	48530
768.973	48070
769.123	48731
769.272	50007
769.422	49887
769.571	49364
769.721	48970
769.87	48901
770.019	50200
770.169	50466
770.318	50719
770.467	51138
770.617	51478
770.766	51022
770.915	49749
771.064	49491
771.213	49423
771.362	48368
771.511	49209
771.66	49956
771.809	50018
771.958	50070
772.107	49933
772.256	49688
772.405	50036
772.554	49826
772.702	49295
772.851	49981
773	50360
773.149	50032
773.297	50116
773.446	50156
773.594	50454
773.743	50606
773.891	50567
774.04	49935
774.188	48858
774.337	49500
774.485	49450
774.633	48907
774.782	47528
774.93	48358
775.078	49275
775.226	49925
775.375	50016
775.523	50174
775.671	50093
775.819	49830
775.967	49632
776.115	49597
776.263	49878
776.411	49975
776.559	49893
776.707	50033
776.854	49746
777.002	49374
777.15	48685
777.298	48484
777.445	48311
777.593	48855
777.741	48933
777.888	48168
778.036	47709
778.183	48871
778.331	49322
778.478	49384
778.626	49305
778.773	48395
778.92	48779
779.068	49229
779.215	49540
779.362	49512
779.51	49351
779.657	48274
779.804	48011
779.951	47933
780.098	48413
780.245	48634
780.392	48865
780.539	48726
780.686	48042
780.833	48063
780.98	47633
781.127	47758
781.274	48308
781.42	48522
781.567	48388
781.714	48652
781.861	48636
782.007	48608
782.154	48387
782.3	48619
782.447	48439
782.594	48256
782.74	48228
782.887	48228
783.033	47227
783.179	46301
783.326	47120
783.472	46495
783.618	47053
783.765	47452
783.911	47874
784.057	47866
784.203	47721
784.349	47808
784.495	47612
784.641	47692
784.787	47324
784.933	46765
785.079	47130
785.225	47354
785.371	46801
785.517	46722
785.663	46827
785.809	47241
785.954	46817
786.1	46738
786.246	46708
786.391	46236
786.537	45811
786.683	46335
786.828	45986
786.974	45867
787.119	46087
787.265	46112
787.41	45810
787.555	44713
787.701	45208
787.846	45537
787.991	44970
788.137	45322
788.282	45936
788.427	45484
788.572	44749
788.717	44929
788.862	44800
789.007	44224
789.152	43620
789.297	43202
789.442	42023
789.587	42773
789.732	44419
789.877	44627
790.022	43182
790.166	42921
790.311	44276
790.456	45031
790.601	45018
790.745	43058
790.89	42461
791.034	43265
791.179	43382
791.323	43933
791.468	43664
791.612	42977
791.757	42758
791.901	43082
792.045	43174
792.19	44093
792.334	43164
792.478	43680
792.622	43627
792.767	41879
792.911	41857
793.055	41828
793.199	41940
793.343	43596
793.487	43970
793.631	42985
793.775	43635
793.919	43934
794.063	43446
794.206	42703
794.35	41841
794.494	41230
794.638	41625
794.781	42252
794.925	42170
795.069	41666
795.212	41549
795.356	41187
795.499	40634
795.643	39942
795.786	38533
795.93	37564
796.073	36670
796.217	35557
796.36	1700
796.503	1688
796.646	1683
796.79	1685
