Data from QEP013861_14-43-37-128.txt Node
Date: Tue Jul 09 14:43:37 EDT 2019
User: xiyang
Spectrometer: QEP01386
Trigger mode: 4
Integration Time (sec): 2.000000E-1
Scans to average: 1
Electric dark correction enabled: false
Nonlinearity correction enabled: false
Boxcar width: 0
XAxis mode: Wavelengths
Number of Pixels in Spectrum: 1044
>>>>>Begin Spectral Data<<<<<
629.243	1699
629.421	1685
629.599	1687
629.777	1684
629.955	27643
630.132	27768
630.31	28320
630.488	29052
630.666	29151
630.843	29102
631.021	28912
631.199	28838
631.376	28505
631.554	28213
631.731	28477
631.909	28747
632.086	29504
632.264	29840
632.441	30252
632.618	30532
632.796	30414
632.973	30492
633.15	30352
633.327	30360
633.504	30057
633.682	30010
633.859	30572
634.036	30913
634.213	30840
634.39	30882
634.567	31374
634.744	31578
634.921	31950
635.098	31831
635.274	31858
635.451	31617
635.628	31525
635.805	31431
635.982	31442
636.158	31614
636.335	32000
636.511	32464
636.688	32736
636.865	32911
637.041	32976
637.218	33267
637.394	33442
637.571	33447
637.747	33453
637.923	33417
638.1	33435
638.276	33681
638.452	33925
638.628	33949
638.805	34114
638.981	33789
639.157	33459
639.333	33266
639.509	33784
639.685	33588
639.861	33248
640.037	33138
640.213	34275
640.389	34397
640.565	34054
640.74	33429
640.916	33708
641.092	33806
641.268	34147
641.443	34477
641.619	34353
641.795	34306
641.97	34046
642.146	34500
642.321	35285
642.497	35406
642.672	35276
642.848	35085
643.023	34677
643.199	34893
643.374	35308
643.549	35310
643.724	34739
643.9	34748
644.075	35445
644.25	36143
644.425	35971
644.6	35684
644.775	35014
644.95	34823
645.125	35332
645.3	35236
645.475	35013
645.65	34975
645.825	35285
646	34668
646.175	34336
646.349	34553
646.524	35209
646.699	35085
646.874	34704
647.048	34441
647.223	34178
647.397	34171
647.572	34119
647.746	34931
647.921	34931
648.095	34309
648.27	34534
648.444	35063
648.618	35817
648.793	35644
648.967	34996
649.141	33729
649.315	32739
649.49	32753
649.664	33844
649.838	35423
650.012	36139
650.186	36933
650.36	36937
650.534	37053
650.708	37164
650.882	36938
651.056	36704
651.23	35810
651.403	34769
651.577	33826
651.751	34570
651.925	35987
652.098	36780
652.272	36876
652.446	36776
652.619	37184
652.793	37258
652.966	37138
653.14	36870
653.313	36684
653.487	37090
653.66	37812
653.833	37787
654.007	37484
654.18	36729
654.353	36237
654.526	36062
654.7	36146
654.873	36431
655.046	36178
655.219	35624
655.392	35131
655.565	34584
655.738	33660
655.911	30638
656.084	26541
656.257	25498
656.43	29960
656.602	34047
656.775	35194
656.948	35563
657.121	35854
657.293	36028
657.466	36519
657.639	37692
657.811	37967
657.984	37888
658.156	37692
658.329	37720
658.501	37821
658.674	37961
658.846	38257
659.018	38100
659.191	37186
659.363	37126
659.535	38069
659.707	38160
659.88	38383
660.052	38740
660.224	38707
660.396	38771
660.568	38481
660.74	38364
660.912	38417
661.084	38789
661.256	38934
661.428	39171
661.6	39187
661.771	39105
661.943	39336
662.115	39175
662.287	39176
662.458	39101
662.63	38911
662.802	38890
662.973	38828
663.145	38003
663.316	37555
663.488	38073
663.659	38840
663.831	38709
664.002	38627
664.174	38320
664.345	38074
664.516	38737
664.687	38840
664.859	39001
665.03	39033
665.201	39089
665.372	39031
665.543	39022
665.714	39124
665.885	38895
666.056	38421
666.227	37853
666.398	38051
666.569	38455
666.74	38652
666.911	38892
667.082	38957
667.252	38969
667.423	38855
667.594	37968
667.764	37617
667.935	38343
668.106	38870
668.276	39100
668.447	39008
668.617	39084
668.788	38918
668.958	39000
669.129	39019
669.299	38864
669.469	38369
669.64	38273
669.81	38632
669.98	38721
670.15	38686
670.321	38195
670.491	38260
670.661	38631
670.831	38615
671.001	38693
671.171	38414
671.341	38153
671.511	37750
671.681	37340
671.851	37893
672.02	38454
672.19	38553
672.36	38699
672.53	38414
672.699	38515
672.869	38889
673.039	38835
673.208	38755
673.378	38764
673.547	38839
673.717	38737
673.886	38670
674.056	38686
674.225	38807
674.395	38876
674.564	38914
674.733	38550
674.903	38319
675.072	38544
675.241	38657
675.41	38947
675.579	39022
675.748	39072
675.917	39209
676.087	39183
676.256	39157
676.425	39226
676.593	38755
676.762	38580
676.931	38945
677.1	38900
677.269	39228
677.438	39481
677.606	39535
677.775	39519
677.944	39645
678.112	39498
678.281	39145
678.45	39022
678.618	39235
678.787	39435
678.955	39741
679.124	39604
679.292	39647
679.46	39506
679.629	39420
679.797	39597
679.965	39793
680.134	39833
680.302	39697
680.47	39714
680.638	39861
680.806	39827
680.974	39586
681.142	39981
681.31	39909
681.478	40180
681.646	40471
681.814	40434
681.982	40170
682.15	40508
682.318	40909
682.486	40832
682.653	40426
682.821	40271
682.989	40732
683.156	40995
683.324	41104
683.492	41033
683.659	40682
683.827	40162
683.994	39651
684.162	39384
684.329	40225
684.496	41323
684.664	41591
684.831	41692
684.998	41970
685.166	42115
685.333	41363
685.5	41032
685.667	41190
685.834	41658
686.001	41788
686.168	41822
686.335	42182
686.502	40514
686.669	32012
686.836	27088
687.003	28921
687.17	30548
687.337	32115
687.504	33847
687.67	35746
687.837	37799
688.004	40492
688.17	41395
688.337	40381
688.504	38621
688.67	38775
688.837	37956
689.003	39327
689.17	38288
689.336	39614
689.502	39212
689.669	39521
689.835	41236
690.001	39666
690.168	42248
690.334	40597
690.5	41409
690.666	43301
690.832	41612
690.998	43908
691.164	43783
691.33	41704
691.496	43763
691.662	43838
691.828	43584
691.994	45503
692.16	44573
692.326	42306
692.492	44395
692.657	45274
692.823	42585
692.989	42627
693.155	43704
693.32	43277
693.486	45324
693.651	44900
693.817	42692
693.982	40885
694.148	42006
694.313	43984
694.479	46224
694.644	44489
694.809	44054
694.975	45531
695.14	46814
695.305	46466
695.47	45709
695.635	45087
695.801	46754
695.966	45841
696.131	47389
696.296	49459
696.461	49545
696.626	51258
696.791	51785
696.955	50827
697.12	50772
697.285	51861
697.45	51164
697.615	49324
697.779	48378
697.944	49885
698.109	51074
698.273	52284
698.438	51076
698.603	48854
698.767	47910
698.932	48234
699.096	50230
699.26	48581
699.425	50037
699.589	52728
699.754	49119
699.918	48851
700.082	51835
700.246	50991
700.411	46500
700.575	48410
700.739	51784
700.903	51878
701.067	50564
701.231	52476
701.395	51857
701.559	46564
701.723	50306
701.887	53040
702.051	53230
702.214	50492
702.378	50358
702.542	50820
702.706	48844
702.869	53422
703.033	55676
703.197	56241
703.36	55923
703.524	55148
703.687	52456
703.851	51310
704.014	54116
704.178	56501
704.341	57004
704.505	56867
704.668	56574
704.831	57122
704.994	54744
705.158	53332
705.321	55117
705.484	56129
705.647	55781
705.81	56460
705.973	55879
706.136	56642
706.299	56670
706.462	56261
706.625	56544
706.788	56738
706.951	58313
707.114	58035
707.277	58294
707.439	58757
707.602	58645
707.765	57143
707.928	57924
708.09	59359
708.253	58679
708.415	57781
708.578	58227
708.74	57607
708.903	57984
709.065	58635
709.228	59343
709.39	59051
709.552	59255
709.715	59672
709.877	59658
710.039	59882
710.201	60271
710.364	60738
710.526	60370
710.688	60347
710.85	60415
711.012	59798
711.174	59986
711.336	60723
711.498	61118
711.66	60922
711.822	60273
711.983	60779
712.145	59445
712.307	60964
712.469	62157
712.63	61290
712.792	60567
712.954	59398
713.115	59854
713.277	61159
713.438	62354
713.6	62319
713.761	62116
713.923	62237
714.084	62059
714.245	61292
714.407	61738
714.568	60708
714.729	57618
714.891	58998
715.052	59068
715.213	61491
715.374	62101
715.535	60640
715.696	61033
715.857	60301
716.018	61390
716.179	59751
716.34	55042
716.501	52526
716.662	48659
716.823	50432
716.984	48025
717.144	46654
717.305	42136
717.466	48557
717.626	41830
717.787	46602
717.948	52603
718.108	46537
718.269	49401
718.429	41150
718.59	34292
718.75	44041
718.911	53957
719.071	43877
719.231	39790
719.392	43668
719.552	48674
719.712	45705
719.872	47058
720.033	38825
720.193	46589
720.353	45795
720.513	45752
720.673	48800
720.833	54371
720.993	56413
721.153	60143
721.313	62643
721.473	60219
721.632	57045
721.792	58989
721.952	62016
722.112	62445
722.271	56502
722.431	59650
722.591	59167
722.75	56940
722.91	61511
723.069	57294
723.229	46232
723.388	41667
723.548	47197
723.707	57898
723.867	53951
724.026	46964
724.185	52634
724.344	48311
724.504	50687
724.663	53789
724.822	56401
724.981	54477
725.14	45303
725.299	42549
725.458	56952
725.617	55694
725.776	53900
725.935	55598
726.094	52230
726.253	52506
726.412	46086
726.571	53099
726.729	61679
726.888	58297
727.047	59062
727.206	53721
727.364	53684
727.523	45105
727.681	40639
727.84	51943
727.998	58220
728.157	57942
728.315	61232
728.474	63401
728.632	56220
728.79	50913
728.949	46301
729.107	46328
729.265	50328
729.423	53384
729.582	60004
729.74	63132
729.898	57953
730.056	56582
730.214	49709
730.372	50030
730.53	59346
730.688	61246
730.846	53436
731.004	52301
731.161	55804
731.319	60315
731.477	59769
731.635	54973
731.792	52832
731.95	60732
732.108	65321
732.265	65856
732.423	64416
732.58	60873
732.738	62357
732.895	65126
733.053	63581
733.21	61472
733.368	61566
733.525	65111
733.682	69230
733.839	69762
733.997	69076
734.154	69055
734.311	65235
734.468	65943
734.625	68039
734.782	64859
734.939	63218
735.096	66358
735.253	66829
735.41	66399
735.567	64896
735.724	66258
735.881	66396
736.038	64033
736.194	64254
736.351	64214
736.508	65468
736.665	66820
736.821	64403
736.978	65954
737.134	67667
737.291	68546
737.447	68632
737.604	68700
737.76	68479
737.917	69735
738.073	68133
738.229	65312
738.386	66769
738.542	67114
738.698	66498
738.854	65114
739.01	65301
739.167	67235
739.323	68164
739.479	68228
739.635	67600
739.791	69364
739.947	68493
740.103	68935
740.259	70273
740.414	69430
740.57	68597
740.726	68677
740.882	66690
741.038	66184
741.193	69495
741.349	68409
741.505	67219
741.66	69237
741.816	70251
741.971	70197
742.127	68218
742.282	67456
742.438	69247
742.593	71039
742.748	71607
742.904	71429
743.059	70795
743.214	71457
743.37	71640
743.525	71491
743.68	71218
743.835	70928
743.99	69773
744.145	70101
744.3	70483
744.455	68943
744.61	68998
744.765	70349
744.92	71029
745.075	71437
745.23	71505
745.384	71543
745.539	71750
745.694	71628
745.849	71909
746.003	71005
746.158	69291
746.313	70320
746.467	71679
746.622	72113
746.776	72077
746.931	72232
747.085	71961
747.239	71535
747.394	71613
747.548	71451
747.702	71499
747.857	71673
748.011	71420
748.165	71045
748.319	71480
748.473	71676
748.627	71528
748.781	71548
748.935	70955
749.089	69803
749.243	69942
749.397	67248
749.551	69016
749.705	70498
749.859	70955
750.013	71399
750.166	71757
750.32	71248
750.474	70825
750.628	70314
750.781	70652
750.935	68803
751.088	68073
751.242	70240
751.395	70928
751.549	71145
751.702	71546
751.856	71473
752.009	71072
752.162	69544
752.316	69188
752.469	69275
752.622	70431
752.775	70894
752.928	69783
753.082	68593
753.235	69718
753.388	70580
753.541	70960
753.694	70863
753.847	70679
754	70530
754.152	70594
754.305	70672
754.458	69877
754.611	69418
754.764	70155
754.916	70536
755.069	70484
755.222	70288
755.374	69471
755.527	68780
755.68	69584
755.832	69848
755.985	70161
756.137	70561
756.289	70629
756.442	70421
756.594	69921
756.746	68779
756.899	68903
757.051	69793
757.203	69153
757.355	68511
757.508	69348
757.66	69718
757.812	69433
757.964	69400
758.116	68615
758.268	67576
758.42	66578
758.572	66081
758.724	67406
758.875	67956
759.027	67882
759.179	63131
759.331	46180
759.482	32046
759.634	26992
759.786	23883
759.937	19686
760.089	16500
760.241	14824
760.392	14015
760.544	14169
760.695	15654
760.846	16975
760.998	20724
761.149	22880
761.3	29957
761.452	32713
761.603	43782
761.754	54345
761.905	51434
762.057	44921
762.208	38284
762.359	33194
762.51	36338
762.661	28969
762.812	34058
762.963	32774
763.114	28626
763.265	37692
763.415	31744
763.566	31872
763.717	41242
763.868	33353
764.018	35261
764.169	45417
764.32	37687
764.47	38168
764.621	49221
764.772	44062
764.922	40303
765.072	51319
765.223	51465
765.373	43574
765.524	50288
765.674	55079
765.824	48899
765.975	47847
766.125	56496
766.275	57000
766.425	50564
766.575	55603
766.726	61438
766.876	60074
767.026	56100
767.176	60171
767.326	63990
767.476	62901
767.625	59843
767.775	62037
767.925	63395
768.075	63652
768.225	61938
768.375	63498
768.524	65309
768.674	65554
768.824	63204
768.973	62290
769.123	63269
769.272	64799
769.422	64839
769.571	63931
769.721	63277
769.87	63368
770.019	65290
770.169	65503
770.318	65845
770.467	66340
770.617	66592
770.766	66147
770.915	64690
771.064	64112
771.213	64353
771.362	62890
771.511	63820
771.66	64846
771.809	64961
771.958	64900
772.107	64533
772.256	64255
772.405	64934
772.554	64646
772.702	63930
772.851	64893
773	65139
773.149	64936
773.297	64940
773.446	65208
773.594	65398
773.743	65329
773.891	65435
774.04	64783
774.188	63194
774.337	63955
774.485	64180
774.633	63452
774.782	61718
774.93	62934
775.078	63772
775.226	64820
775.375	64917
775.523	64977
775.671	64814
775.819	64578
775.967	64150
776.115	64312
776.263	64491
776.411	64690
776.559	64605
776.707	64687
776.854	64547
777.002	63726
777.15	62901
777.298	62441
777.445	62333
777.593	63289
777.741	63552
777.888	62300
778.036	61998
778.183	63150
778.331	63743
778.478	63820
778.626	63791
778.773	62609
778.92	63037
779.068	63646
779.215	64137
779.362	64094
779.51	63879
779.657	62615
779.804	62411
779.951	62120
780.098	62650
780.245	63071
780.392	63195
780.539	63052
780.686	62140
780.833	62158
780.98	61762
781.127	61861
781.274	62378
781.42	62589
781.567	62584
781.714	62840
781.861	62930
782.007	62595
782.154	62596
782.3	62706
782.447	62587
782.594	62412
782.74	62486
782.887	62415
783.033	61122
783.179	59908
783.326	60753
783.472	60313
783.618	60756
783.765	61508
783.911	61750
784.057	61914
784.203	61797
784.349	61702
784.495	61576
784.641	61527
784.787	61246
784.933	60548
785.079	60924
785.225	61044
785.371	60396
785.517	60369
785.663	60779
785.809	60652
785.954	60603
786.1	60474
786.246	60204
786.391	59596
786.537	59165
786.683	59731
786.828	59424
786.974	59237
787.119	59540
787.265	59452
787.41	59343
787.555	57778
787.701	58532
787.846	58691
787.991	57944
788.137	58503
788.282	59290
788.427	58882
788.572	58003
788.717	57890
788.862	57711
789.007	57169
789.152	56298
789.297	55753
789.442	54172
789.587	54985
789.732	57176
789.877	57731
790.022	55781
790.166	55345
790.311	57107
790.456	57956
790.601	58014
790.745	55669
790.89	54750
791.034	55528
791.179	55958
791.323	56890
791.468	56385
791.612	55462
791.757	55281
791.901	55459
792.045	55702
792.19	56715
792.334	55738
792.478	56334
792.622	56376
792.767	53925
792.911	53917
793.055	53800
793.199	54160
793.343	56116
793.487	56986
793.631	55401
793.775	56134
793.919	56732
794.063	55696
794.206	54991
794.35	54122
794.494	53046
794.638	53738
794.781	54543
794.925	54491
795.069	53666
795.212	53636
795.356	52913
795.499	52574
795.643	51448
795.786	49681
795.93	48204
796.073	47185
796.217	45869
796.36	1705
796.503	1688
796.646	1687
796.79	1687
