Data from QEP013861_14-42-36-528.txt Node
Date: Tue Jul 09 14:42:36 EDT 2019
User: xiyang
Spectrometer: QEP01386
Trigger mode: 4
Integration Time (sec): 2.000000E-1
Scans to average: 1
Electric dark correction enabled: false
Nonlinearity correction enabled: false
Boxcar width: 0
XAxis mode: Wavelengths
Number of Pixels in Spectrum: 1044
>>>>>Begin Spectral Data<<<<<
629.243	1701
629.421	1689
629.599	1687
629.777	1684
629.955	8225
630.132	8334
630.31	8497
630.488	8632
630.666	8686
630.843	8689
631.021	8669
631.199	8560
631.376	8519
631.554	8494
631.731	8541
631.909	8624
632.086	8787
632.264	8837
632.441	8981
632.618	9075
632.796	9023
632.973	9053
633.15	8991
633.327	8981
633.504	8928
633.682	8972
633.859	8994
634.036	9110
634.213	9159
634.39	9094
634.567	9205
634.744	9283
634.921	9406
635.098	9372
635.274	9436
635.451	9308
635.628	9259
635.805	9270
635.982	9214
636.158	9297
636.335	9332
636.511	9473
636.688	9539
636.865	9584
637.041	9624
637.218	9675
637.394	9752
637.571	9742
637.747	9707
637.923	9768
638.1	9698
638.276	9763
638.452	9789
638.628	9891
638.805	9771
638.981	9717
639.157	9741
639.333	9645
639.509	9737
639.685	9723
639.861	9659
640.037	9650
640.213	9908
640.389	9898
640.565	9808
640.74	9672
640.916	9721
641.092	9745
641.268	9861
641.443	9874
641.619	9848
641.795	9804
641.97	9819
642.146	9894
642.321	10086
642.497	10103
642.672	10133
642.848	9999
643.023	9966
643.199	9938
643.374	10036
643.549	10076
643.724	9961
643.9	9977
644.075	10165
644.25	10238
644.425	10199
644.6	10078
644.775	10011
644.95	9928
645.125	10074
645.3	10077
645.475	9982
645.65	10039
645.825	10000
646	9881
646.175	9809
646.349	9845
646.524	9972
646.699	9973
646.874	9896
647.048	9892
647.223	9775
647.397	9795
647.572	9789
647.746	9901
647.921	9947
648.095	9815
648.27	9821
648.444	10020
648.618	10169
648.793	10105
648.967	9960
649.141	9621
649.315	9429
649.49	9428
649.664	9687
649.838	10082
650.012	10278
650.186	10394
650.36	10492
650.534	10492
650.708	10482
650.882	10523
651.056	10448
651.23	10180
651.403	9966
651.577	9697
651.751	9842
651.925	10207
652.098	10454
652.272	10401
652.446	10411
652.619	10520
652.793	10545
652.966	10517
653.14	10377
653.313	10430
653.487	10540
653.66	10625
653.833	10647
654.007	10578
654.18	10429
654.353	10329
654.526	10276
654.7	10237
654.873	10367
655.046	10344
655.219	10143
655.392	10039
655.565	9900
655.738	9573
655.911	8863
656.084	7982
656.257	7692
656.43	8833
656.602	9775
656.775	10096
656.948	10183
657.121	10248
657.293	10258
657.466	10372
657.639	10643
657.811	10761
657.984	10742
658.156	10716
658.329	10710
658.501	10673
658.674	10684
658.846	10902
659.018	10725
659.191	10565
659.363	10591
659.535	10767
659.707	10820
659.88	10886
660.052	10923
660.224	10998
660.396	10966
660.568	10923
660.74	10883
660.912	10875
661.084	11028
661.256	11058
661.428	11090
661.6	11103
661.771	11053
661.943	11172
662.115	11166
662.287	11159
662.458	11085
662.63	11106
662.802	11105
662.973	11117
663.145	10876
663.316	10800
663.488	10865
663.659	11068
663.831	11030
664.002	11005
664.174	10964
664.345	10898
664.516	11064
664.687	11142
664.859	11178
665.03	11281
665.201	11261
665.372	11257
665.543	11247
665.714	11296
665.885	11270
666.056	11137
666.227	11025
666.398	11086
666.569	11210
666.74	11197
666.911	11299
667.082	11323
667.252	11279
667.423	11262
667.594	11173
667.764	11026
667.935	11250
668.106	11381
668.276	11452
668.447	11350
668.617	11466
668.788	11465
668.958	11529
669.129	11473
669.299	11471
669.469	11370
669.64	11313
669.81	11387
669.98	11470
670.15	11472
670.321	11313
670.491	11396
670.661	11487
670.831	11514
671.001	11512
671.171	11476
671.341	11454
671.511	11334
671.681	11220
671.851	11397
672.02	11501
672.19	11532
672.36	11584
672.53	11570
672.699	11627
672.869	11682
673.039	11647
673.208	11691
673.378	11682
673.547	11803
673.717	11774
673.886	11735
674.056	11783
674.225	11763
674.395	11875
674.564	11839
674.733	11801
674.903	11710
675.072	11778
675.241	11862
675.41	11922
675.579	11957
675.748	11946
675.917	12102
676.087	12100
676.256	12092
676.425	12043
676.593	11964
676.762	11937
676.931	12014
677.1	11964
677.269	12175
677.438	12236
677.606	12258
677.775	12328
677.944	12313
678.112	12233
678.281	12246
678.45	12131
678.618	12219
678.787	12297
678.955	12389
679.124	12441
679.292	12415
679.46	12333
679.629	12360
679.797	12447
679.965	12501
680.134	12514
680.302	12443
680.47	12512
680.638	12506
680.806	12556
680.974	12507
681.142	12595
681.31	12621
681.478	12685
681.646	12686
681.814	12699
681.982	12657
682.15	12762
682.318	12895
682.486	12859
682.653	12778
682.821	12712
682.989	12880
683.156	12923
683.324	12891
683.492	12899
683.659	12810
683.827	12743
683.994	12611
684.162	12585
684.329	12822
684.496	13056
684.664	13082
684.831	13226
684.998	13232
685.166	13173
685.333	13004
685.5	12898
685.667	13043
685.834	13075
686.001	13089
686.168	13201
686.335	13257
686.502	12715
686.669	10658
686.836	9508
687.003	9914
687.17	10326
687.337	10657
687.504	11135
687.67	11639
687.837	12078
688.004	12768
688.17	12927
688.337	12754
688.504	12281
688.67	12441
688.837	12118
689.003	12470
689.17	12248
689.336	12511
689.502	12463
689.669	12607
689.835	12901
690.001	12615
690.168	13219
690.334	12768
690.5	13009
690.666	13527
690.832	13212
690.998	13738
691.164	13696
691.33	13195
691.496	13806
691.662	13810
691.828	13711
691.994	14258
692.16	14055
692.326	13565
692.492	13984
692.657	14251
692.823	13658
692.989	13733
693.155	13985
693.32	13951
693.486	14541
693.651	14444
693.817	13959
693.982	13461
694.148	13922
694.313	14462
694.479	15132
694.644	14706
694.809	14707
694.975	15104
695.14	15601
695.305	15531
695.47	15359
695.635	15351
695.801	15963
695.966	15708
696.131	16306
696.296	16918
696.461	17018
696.626	17585
696.791	17997
696.955	17788
697.12	17932
697.285	18140
697.45	18247
697.615	17724
697.779	17672
697.944	18268
698.109	18794
698.273	19195
698.438	18972
698.603	18343
698.767	18226
698.932	18499
699.096	19231
699.26	18857
699.425	19468
699.589	20539
699.754	19508
699.918	19709
700.082	20775
700.246	20577
700.411	19053
700.575	20043
700.739	21474
700.903	21513
701.067	21104
701.231	22159
701.395	22022
701.559	20138
701.723	21726
701.887	22953
702.051	23178
702.214	22226
702.378	22453
702.542	22720
702.706	22209
702.869	24101
703.033	25323
703.197	25745
703.36	25632
703.524	25539
703.687	24606
703.851	24343
704.014	25804
704.178	27148
704.341	27345
704.505	27501
704.668	27558
704.831	27879
704.994	27117
705.158	26576
705.321	27548
705.484	28308
705.647	28246
705.81	28681
705.973	28672
706.136	29193
706.299	29449
706.462	29486
706.625	29805
706.788	30000
706.951	30972
707.114	30922
707.277	31356
707.439	31724
707.602	31902
707.765	31367
707.928	32008
708.09	32870
708.253	32715
708.415	32362
708.578	32789
708.74	32636
708.903	33031
709.065	33498
709.228	33980
709.39	34177
709.552	34493
709.715	34857
709.877	35021
710.039	35376
710.201	35857
710.364	36314
710.526	36152
710.688	36330
710.85	36629
711.012	36451
711.174	36776
711.336	37367
711.498	37681
711.66	37792
711.822	37595
711.983	38106
712.145	37552
712.307	38692
712.469	39517
712.63	39273
712.792	38802
712.954	38526
713.115	38921
713.277	39971
713.438	40766
713.6	40907
713.761	40942
713.923	41351
714.084	41248
714.245	41044
714.407	41491
714.568	41079
714.729	39184
714.891	40313
715.052	40597
715.213	42159
715.374	42805
715.535	42115
715.696	42481
715.857	42186
716.018	43209
716.179	42001
716.34	39135
716.501	37689
716.662	35139
716.823	36459
716.984	35053
717.144	34236
717.305	31457
717.466	35893
717.626	31280
717.787	35034
717.948	39155
718.108	35054
718.269	37107
718.429	31305
718.59	26597
718.75	34188
718.911	40726
719.071	33455
719.231	31004
719.392	34283
719.552	37939
719.712	35668
719.872	36867
720.033	30930
720.193	36874
720.353	36122
720.513	36320
720.673	38936
720.833	43298
720.993	45051
721.153	48045
721.313	49952
721.473	48088
721.632	46170
721.792	47706
721.952	50351
722.112	50522
722.271	45930
722.431	48998
722.591	48546
722.75	47232
722.91	50844
723.069	47116
723.229	38858
723.388	35413
723.548	40162
723.707	48813
723.867	45633
724.026	40363
724.185	44780
724.344	41543
724.504	43592
724.663	46370
724.822	48495
724.981	47061
725.14	39270
725.299	37793
725.458	49705
725.617	48357
725.776	47403
725.935	48783
726.094	46060
726.253	46438
726.412	41088
726.571	47568
726.729	54547
726.888	51705
727.047	52814
727.206	48142
727.364	48155
727.523	40789
727.681	37467
727.84	47467
727.998	52847
728.157	52639
728.315	55948
728.474	57740
728.632	51319
728.79	46845
728.949	42975
729.107	43375
729.265	46948
729.423	49784
729.582	55659
729.74	58538
729.898	53937
730.056	52958
730.214	46643
730.372	47627
730.53	56086
730.688	57443
730.846	50483
731.004	49889
731.161	53052
731.319	57498
731.477	56827
731.635	52573
731.792	50889
731.95	58577
732.108	62654
732.265	63028
732.423	61746
732.58	58978
732.738	60375
732.895	62877
733.053	61649
733.21	59620
733.368	60072
733.525	63384
733.682	67199
733.839	68067
733.997	67520
734.154	67466
734.311	63941
734.468	64965
734.625	66736
734.782	63861
734.939	62454
735.096	65694
735.253	65992
735.41	65784
735.567	64460
735.724	66052
735.881	66188
736.038	64022
736.194	64318
736.351	64373
736.508	65705
736.665	67127
736.821	64717
736.978	66494
737.134	68216
737.291	68936
737.447	69233
737.604	69401
737.76	69443
737.917	70834
738.073	69035
738.229	66560
738.386	68117
738.542	68402
738.698	67933
738.854	66496
739.01	67037
739.167	69047
739.323	69904
739.479	70020
739.635	69610
739.791	71029
739.947	70501
740.103	70844
740.259	72359
740.414	71838
740.57	71177
740.726	71092
740.882	68852
741.038	68808
741.193	72154
741.349	71104
741.505	69723
741.66	72152
741.816	73124
741.971	73402
742.127	71165
742.282	70473
742.438	72382
742.593	74027
742.748	74941
742.904	74672
743.059	74252
743.214	74864
743.37	74905
743.525	74859
743.68	74980
743.835	74808
743.99	73459
744.145	73861
744.3	74352
744.455	72672
744.61	73188
744.765	74105
744.92	75161
745.075	75502
745.23	75579
745.384	75843
745.539	76083
745.694	76158
745.849	76380
746.003	75094
746.158	73256
746.313	74666
746.467	75968
746.622	76443
746.776	76602
746.931	76822
747.085	76710
747.239	76202
747.394	76470
747.548	76198
747.702	76286
747.857	76634
748.011	76470
748.165	76091
748.319	76374
748.473	76611
748.627	76675
748.781	76544
748.935	76038
749.089	74997
749.243	74942
749.397	72354
749.551	74210
749.705	75684
749.859	76106
750.013	76403
750.166	76780
750.32	76640
750.474	76092
750.628	75577
750.781	76193
750.935	74119
751.088	73290
751.242	75607
751.395	76372
751.549	76783
751.702	77081
751.856	77238
752.009	76489
752.162	74843
752.316	74537
752.469	74761
752.622	75892
752.775	76342
752.928	75234
753.082	74276
753.235	75392
753.388	76114
753.541	76657
753.694	76268
753.847	76538
754	76216
754.152	76417
754.305	76564
754.458	75713
754.611	75228
754.764	75965
754.916	76215
755.069	76219
755.222	76252
755.374	75075
755.527	74364
755.68	75550
755.832	75476
755.985	76105
756.137	76138
756.289	76099
756.442	76338
756.594	76048
756.746	74733
756.899	74870
757.051	75869
757.203	75044
757.355	74476
757.508	75301
757.66	75544
757.812	75412
757.964	75589
758.116	74733
758.268	72996
758.42	72340
758.572	72020
758.724	73169
758.875	73879
759.027	73560
759.179	68331
759.331	50280
759.482	34865
759.634	29966
759.786	26626
759.937	22039
760.089	18600
760.241	16768
760.392	16055
760.544	16177
760.695	17928
760.846	19230
760.998	23387
761.149	25695
761.3	33395
761.452	36423
761.603	48505
761.754	59488
761.905	55634
762.057	49112
762.208	41475
762.359	36562
762.51	39766
762.661	31850
762.812	37992
762.963	35834
763.114	31999
763.265	41472
763.415	34667
763.566	35413
763.717	45180
763.868	36333
764.018	39357
764.169	49774
764.32	40929
764.47	42244
764.621	53997
764.772	47901
764.922	44480
765.072	56351
765.223	55827
765.373	47777
765.524	54967
765.674	59916
765.824	53092
765.975	52291
766.125	61829
766.275	61760
766.425	55114
766.575	60544
766.726	66747
766.876	65104
767.026	61082
767.176	65513
767.326	69505
767.476	68451
767.625	64830
767.775	67575
767.925	68717
768.075	69241
768.225	67278
768.375	69207
768.524	71014
768.674	71028
768.824	68713
768.973	67743
769.123	68630
769.272	70518
769.422	70162
769.571	69399
769.721	68792
769.87	68669
770.019	71070
770.169	71277
770.318	71714
770.467	72146
770.617	72233
770.766	71829
770.915	70004
771.064	69729
771.213	69650
771.362	68245
771.511	69248
771.66	70072
771.809	70613
771.958	70435
772.107	70057
772.256	69797
772.405	70143
772.554	69924
772.702	69355
772.851	70268
773	70781
773.149	70303
773.297	70254
773.446	70468
773.594	70858
773.743	70799
773.891	70876
774.04	70254
774.188	68694
774.337	69209
774.485	69431
774.633	68586
774.782	66913
774.93	68099
775.078	69104
775.226	70124
775.375	70199
775.523	70371
775.671	70584
775.819	69766
775.967	69301
776.115	69875
776.263	70027
776.411	69901
776.559	69845
776.707	69950
776.854	69814
777.002	69209
777.15	68041
777.298	67880
777.445	67566
777.593	68381
777.741	68559
777.888	67480
778.036	67112
778.183	68514
778.331	68908
778.478	69095
778.626	69058
778.773	67846
778.92	68286
779.068	68952
779.215	69296
779.362	69373
779.51	68992
779.657	67734
779.804	67247
779.951	67137
780.098	67870
780.245	68345
780.392	68370
780.539	68114
780.686	67265
780.833	67385
780.98	66733
781.127	67030
781.274	67277
781.42	67575
781.567	67943
781.714	68033
781.861	67963
782.007	67710
782.154	67786
782.3	67907
782.447	67480
782.594	67568
782.74	67424
782.887	67292
783.033	65940
783.179	64734
783.326	65821
783.472	65115
783.618	65596
783.765	66498
783.911	66692
784.057	66807
784.203	66769
784.349	66754
784.495	66442
784.641	66458
784.787	66162
784.933	65400
785.079	65961
785.225	65913
785.371	65205
785.517	65306
785.663	65480
785.809	65670
785.954	65341
786.1	65312
786.246	64923
786.391	64386
786.537	63958
786.683	64517
786.828	64200
786.974	63850
787.119	64212
787.265	64411
787.41	63964
787.555	62465
787.701	63292
787.846	63500
787.991	62597
788.137	63147
788.282	63942
788.427	63638
788.572	62356
788.717	62613
788.862	62478
789.007	61528
789.152	60572
789.297	60033
789.442	58377
789.587	59326
789.732	61830
789.877	62141
790.022	60091
790.166	59730
790.311	61557
790.456	62646
790.601	62538
790.745	59870
790.89	59175
791.034	60036
791.179	60445
791.323	61306
791.468	60615
791.612	59725
791.757	59589
791.901	59839
792.045	60114
792.19	61041
792.334	60064
792.478	60515
792.622	60573
792.767	58139
792.911	57963
793.055	58046
793.199	58470
793.343	60756
793.487	61177
793.631	59631
793.775	60556
793.919	61032
794.063	59921
794.206	59343
794.35	58002
794.494	57201
794.638	57690
794.781	58715
794.925	58359
795.069	57793
795.212	57598
795.356	56911
795.499	56384
795.643	55438
795.786	53575
795.93	52045
796.073	50704
796.217	49121
796.36	1708
796.503	1689
796.646	1686
796.79	1687
