Data from QEP013861_14-42-36-128.txt Node
Date: Tue Jul 09 14:42:36 EDT 2019
User: xiyang
Spectrometer: QEP01386
Trigger mode: 4
Integration Time (sec): 2.000000E-1
Scans to average: 1
Electric dark correction enabled: false
Nonlinearity correction enabled: false
Boxcar width: 0
XAxis mode: Wavelengths
Number of Pixels in Spectrum: 1044
>>>>>Begin Spectral Data<<<<<
629.243	1695
629.421	1688
629.599	1686
629.777	1682
629.955	9044
630.132	9038
630.31	9218
630.488	9455
630.666	9417
630.843	9427
631.021	9436
631.199	9364
631.376	9252
631.554	9196
631.731	9292
631.909	9344
632.086	9568
632.264	9656
632.441	9770
632.618	9821
632.796	9774
632.973	9807
633.15	9758
633.327	9767
633.504	9650
633.682	9728
633.859	9791
634.036	9907
634.213	9959
634.39	9927
634.567	10074
634.744	10110
634.921	10135
635.098	10188
635.274	10163
635.451	10113
635.628	10133
635.805	10143
635.982	10065
636.158	10123
636.335	10265
636.511	10372
636.688	10481
636.865	10514
637.041	10485
637.218	10551
637.394	10636
637.571	10646
637.747	10609
637.923	10634
638.1	10588
638.276	10725
638.452	10683
638.628	10830
638.805	10765
638.981	10679
639.157	10727
639.333	10582
639.509	10693
639.685	10655
639.861	10560
640.037	10578
640.213	10852
640.389	10864
640.565	10725
640.74	10624
640.916	10655
641.092	10724
641.268	10855
641.443	10846
641.619	10879
641.795	10867
641.97	10862
642.146	10872
642.321	11174
642.497	11159
642.672	11160
642.848	11065
643.023	10911
643.199	10951
643.374	11060
643.549	11093
643.724	11008
643.9	10947
644.075	11126
644.25	11335
644.425	11334
644.6	11148
644.775	11027
644.95	11013
645.125	11105
645.3	11163
645.475	11111
645.65	11002
645.825	11054
646	10923
646.175	10864
646.349	10926
646.524	11124
646.699	11063
646.874	10977
647.048	10827
647.223	10859
647.397	10800
647.572	10868
647.746	11099
647.921	11037
648.095	11014
648.27	10925
648.444	11085
648.618	11251
648.793	11297
648.967	11069
649.141	10768
649.315	10435
649.49	10430
649.664	10757
649.838	11278
650.012	11432
650.186	11560
650.36	11757
650.534	11708
650.708	11709
650.882	11673
651.056	11561
651.23	11373
651.403	11002
651.577	10830
651.751	11092
651.925	11433
652.098	11603
652.272	11665
652.446	11697
652.619	11809
652.793	11783
652.966	11735
653.14	11641
653.313	11577
653.487	11772
653.66	11877
653.833	11928
654.007	11869
654.18	11645
654.353	11477
654.526	11447
654.7	11451
654.873	11631
655.046	11526
655.219	11354
655.392	11241
655.565	11084
655.738	10732
655.911	9942
656.084	8850
656.257	8531
656.43	9812
656.602	10961
656.775	11202
656.948	11326
657.121	11524
657.293	11479
657.466	11679
657.639	11960
657.811	12053
657.984	12054
658.156	12001
658.329	12010
658.501	12026
658.674	11991
658.846	12214
659.018	12096
659.191	11832
659.363	11848
659.535	12149
659.707	12164
659.88	12268
660.052	12342
660.224	12407
660.396	12299
660.568	12345
660.74	12251
660.912	12297
661.084	12406
661.256	12516
661.428	12602
661.6	12565
661.771	12527
661.943	12561
662.115	12615
662.287	12535
662.458	12525
662.63	12500
662.802	12538
662.973	12437
663.145	12350
663.316	12188
663.488	12364
663.659	12555
663.831	12607
664.002	12531
664.174	12475
664.345	12409
664.516	12580
664.687	12629
664.859	12742
665.03	12790
665.201	12733
665.372	12737
665.543	12750
665.714	12833
665.885	12720
666.056	12595
666.227	12528
666.398	12514
666.569	12696
666.74	12774
666.911	12871
667.082	12824
667.252	12883
667.423	12849
667.594	12626
667.764	12542
667.935	12742
668.106	12952
668.276	13010
668.447	13000
668.617	12936
668.788	13095
668.958	12998
669.129	13075
669.299	13037
669.469	12930
669.64	12880
669.81	13009
669.98	13014
670.15	12957
670.321	13013
670.491	12986
670.661	13110
670.831	13127
671.001	13091
671.171	12975
671.341	12995
671.511	12921
671.681	12802
671.851	12914
672.02	13048
672.19	13146
672.36	13218
672.53	13083
672.699	13222
672.869	13313
673.039	13342
673.208	13305
673.378	13365
673.547	13310
673.717	13354
673.886	13350
674.056	13389
674.225	13404
674.395	13388
674.564	13421
674.733	13384
674.903	13311
675.072	13328
675.241	13512
675.41	13506
675.579	13569
675.748	13642
675.917	13657
676.087	13713
676.256	13743
676.425	13649
676.593	13504
676.762	13460
676.931	13607
677.1	13735
677.269	13760
677.438	13869
677.606	13888
677.775	13858
677.944	13851
678.112	13886
678.281	13788
678.45	13747
678.618	13863
678.787	13897
678.955	14069
679.124	13970
679.292	13906
679.46	13957
679.629	13965
679.797	14041
679.965	14147
680.134	14201
680.302	14084
680.47	14061
680.638	14165
680.806	14176
680.974	14149
681.142	14248
681.31	14261
681.478	14322
681.646	14345
681.814	14353
681.982	14263
682.15	14479
682.318	14530
682.486	14435
682.653	14414
682.821	14292
682.989	14465
683.156	14579
683.324	14603
683.492	14495
683.659	14429
683.827	14289
683.994	14119
684.162	14114
684.329	14329
684.496	14634
684.664	14639
684.831	14724
684.998	14752
685.166	14796
685.333	14633
685.5	14563
685.667	14552
685.834	14753
686.001	14715
686.168	14646
686.335	14791
686.502	14211
686.669	11783
686.836	10435
687.003	10946
687.17	11333
687.337	11830
687.504	12311
687.67	12840
687.837	13366
688.004	14197
688.17	14334
688.337	14026
688.504	13573
688.67	13604
688.837	13493
689.003	13718
689.17	13518
689.336	13847
689.502	13723
689.669	13822
689.835	14331
690.001	13912
690.168	14704
690.334	14104
690.5	14348
690.666	14878
690.832	14482
690.998	15071
691.164	15054
691.33	14430
691.496	15186
691.662	15143
691.828	15070
691.994	15648
692.16	15362
692.326	14807
692.492	15315
692.657	15584
692.823	14906
692.989	15044
693.155	15302
693.32	15198
693.486	15884
693.651	15789
693.817	15138
693.982	14784
694.148	15125
694.313	15746
694.479	16415
694.644	15851
694.809	15899
694.975	16443
695.14	16847
695.305	16849
695.47	16699
695.635	16648
695.801	17114
695.966	17019
696.131	17598
696.296	18210
696.461	18387
696.626	18964
696.791	19241
696.955	19093
697.12	19198
697.285	19690
697.45	19530
697.615	18991
697.779	18828
697.944	19554
698.109	19984
698.273	20639
698.438	20263
698.603	19632
698.767	19407
698.932	19645
699.096	20572
699.26	19978
699.425	20825
699.589	21796
699.754	20677
699.918	20837
700.082	21915
700.246	21781
700.411	20182
700.575	21208
700.739	22589
700.903	22816
701.067	22401
701.231	23305
701.395	23173
701.559	21252
701.723	22986
701.887	24169
702.051	24510
702.214	23498
702.378	23713
702.542	23916
702.706	23385
702.869	25273
703.033	26658
703.197	27046
703.36	26987
703.524	26990
703.687	25875
703.851	25545
704.014	27043
704.178	28464
704.341	28551
704.505	28805
704.668	28745
704.831	29087
704.994	28318
705.158	27857
705.321	28907
705.484	29581
705.647	29418
705.81	30008
705.973	30026
706.136	30543
706.299	30770
706.462	30628
706.625	31072
706.788	31302
706.951	32390
707.114	32380
707.277	32684
707.439	33137
707.602	33283
707.765	32732
707.928	33283
708.09	34278
708.253	34012
708.415	33779
708.578	34088
708.74	34017
708.903	34377
709.065	34886
709.228	35383
709.39	35724
709.552	35689
709.715	36099
709.877	36397
710.039	36759
710.201	37300
710.364	37785
710.526	37490
710.688	37820
710.85	38071
711.012	38015
711.174	38192
711.336	38904
711.498	39096
711.66	39247
711.822	39118
711.983	39509
712.145	38824
712.307	40100
712.469	40813
712.63	40654
712.792	40247
712.954	39796
713.115	40227
713.277	41313
713.438	42321
713.6	42354
713.761	42578
713.923	42872
714.084	42735
714.245	42321
714.407	42858
714.568	42453
714.729	40612
714.891	41768
715.052	41920
715.213	43877
715.374	44270
715.535	43580
715.696	43947
715.857	43693
716.018	44567
716.179	43422
716.34	40350
716.501	38943
716.662	36344
716.823	37683
716.984	36215
717.144	35374
717.305	32387
717.466	36988
717.626	32212
717.787	36159
717.948	40393
718.108	36194
718.269	38423
718.429	32389
718.59	27399
718.75	35129
718.911	42185
719.071	34693
719.231	31979
719.392	35404
719.552	39105
719.712	36730
719.872	37744
720.033	31824
720.193	37996
720.353	37360
720.513	37559
720.673	40301
720.833	44687
720.993	46563
721.153	49572
721.313	51624
721.473	49790
721.632	47590
721.792	49317
721.952	52019
722.112	52264
722.271	47579
722.431	50348
722.591	50136
722.75	48685
722.91	52505
723.069	48727
723.229	40084
723.388	36554
723.548	41345
723.707	50220
723.867	46923
724.026	41681
724.185	46093
724.344	42850
724.504	44892
724.663	47710
724.822	50066
724.981	48585
725.14	40519
725.299	38834
725.458	51113
725.617	49724
725.776	48880
725.935	50226
726.094	47487
726.253	47782
726.412	42417
726.571	48810
726.729	56252
726.888	53378
727.047	54472
727.206	49785
727.364	49703
727.523	42203
727.681	38601
727.84	49092
727.998	54371
728.157	54269
728.315	57660
728.474	59505
728.632	53024
728.79	48185
728.949	44214
729.107	44681
729.265	48283
729.423	51159
729.582	57472
729.74	60365
729.898	55500
730.056	54630
730.214	48089
730.372	49039
730.53	57691
730.688	59176
730.846	52204
731.004	51338
731.161	54734
731.319	59208
731.477	58656
731.635	54057
731.792	52588
731.95	60166
732.108	64603
732.265	64661
732.423	63667
732.58	60538
732.738	62365
732.895	64556
733.053	63439
733.21	61454
733.368	61800
733.525	65315
733.682	69432
733.839	70057
733.997	69642
734.154	69581
734.311	65617
734.468	66851
734.625	68614
734.782	65638
734.939	64213
735.096	67714
735.253	68049
735.41	67681
735.567	66573
735.724	68090
735.881	68216
736.038	65951
736.194	66055
736.351	66327
736.508	67521
736.665	68947
736.821	66590
736.978	68416
737.134	70153
737.291	70963
737.447	71532
737.604	71486
737.76	71408
737.917	73031
738.073	71102
738.229	68569
738.386	70075
738.542	70249
738.698	70052
738.854	68357
739.01	69229
739.167	71102
739.323	72073
739.479	71899
739.635	71506
739.791	73282
739.947	72619
740.103	72992
740.259	74688
740.414	73923
740.57	73130
740.726	73216
740.882	70743
741.038	70802
741.193	74383
741.349	73183
741.505	71785
741.66	74190
741.816	75149
741.971	75397
742.127	73113
742.282	72389
742.438	74554
742.593	76311
742.748	77090
742.904	77096
743.059	76368
743.214	77117
743.37	77237
743.525	77131
743.68	77110
743.835	76905
743.99	75758
744.145	76079
744.3	76518
744.455	74856
744.61	75162
744.765	76335
744.92	77251
745.075	77369
745.23	77877
745.384	77893
745.539	78158
745.694	78327
745.849	78526
746.003	77416
746.158	75550
746.313	77185
746.467	78309
746.622	78762
746.776	79038
746.931	79087
747.085	78982
747.239	78534
747.394	78512
747.548	78366
747.702	78510
747.857	78842
748.011	78529
748.165	78275
748.319	78502
748.473	78968
748.627	78974
748.781	78592
748.935	78006
749.089	77063
749.243	77051
749.397	74521
749.551	76243
749.705	77881
749.859	78514
750.013	78825
750.166	79154
750.32	78962
750.474	78263
750.628	77431
750.781	78326
750.935	76155
751.088	75604
751.242	77892
751.395	78493
751.549	78872
751.702	79154
751.856	79314
752.009	78721
752.162	77027
752.316	76965
752.469	76888
752.622	78184
752.775	78607
752.928	77576
753.082	76217
753.235	77724
753.388	78539
753.541	78719
753.694	78608
753.847	78823
754	78296
754.152	78500
754.305	78573
754.458	77903
754.611	77514
754.764	77902
754.916	78788
755.069	78471
755.222	78498
755.374	77158
755.527	76740
755.68	77854
755.832	77767
755.985	78144
756.137	78370
756.289	78502
756.442	78629
756.594	78194
756.746	76866
756.899	76816
757.051	77745
757.203	77165
757.355	76527
757.508	77586
757.66	77757
757.812	77663
757.964	77419
758.116	77036
758.268	75507
758.42	74302
758.572	74029
758.724	75254
758.875	76132
759.027	75932
759.179	70271
759.331	51452
759.482	35957
759.634	30670
759.786	27254
759.937	22633
760.089	19119
760.241	17256
760.392	16506
760.544	16580
760.695	18369
760.846	19764
760.998	24082
761.149	26394
761.3	34212
761.452	37391
761.603	49754
761.754	61132
761.905	57251
762.057	50353
762.208	42917
762.359	37642
762.51	40912
762.661	32719
762.812	38863
762.963	36864
763.114	32694
763.265	42653
763.415	35641
763.566	36438
763.717	46446
763.868	37520
764.018	40291
764.169	51005
764.32	42092
764.47	43527
764.621	55583
764.772	49121
764.922	45645
765.072	57735
765.223	57316
765.373	48864
765.524	56805
765.674	61542
765.824	54703
765.975	53820
766.125	63565
766.275	63649
766.425	56957
766.575	62392
766.726	68877
766.876	66746
767.026	62811
767.176	67387
767.326	71470
767.476	70196
767.625	67124
767.775	69464
767.925	70728
768.075	71299
768.225	69213
768.375	71139
768.524	73276
768.674	73173
768.824	70764
768.973	69694
769.123	70678
769.272	72571
769.422	72392
769.571	71652
769.721	70672
769.87	70859
770.019	72868
770.169	73189
770.318	73704
770.467	74117
770.617	74232
770.766	73928
770.915	72341
771.064	71760
771.213	71713
771.362	70193
771.511	71149
771.66	72285
771.809	72583
771.958	72761
772.107	72178
772.256	71831
772.405	72539
772.554	71963
772.702	71359
772.851	72350
773	72647
773.149	72567
773.297	72385
773.446	72646
773.594	73006
773.743	73004
773.891	72911
774.04	72257
774.188	70554
774.337	71363
774.485	71454
774.633	70629
774.782	68880
774.93	70253
775.078	71384
775.226	72083
775.375	72251
775.523	72325
775.671	72429
775.819	72004
775.967	71618
776.115	71797
776.263	71862
776.411	71916
776.559	72054
776.707	72191
776.854	72008
777.002	71178
777.15	70095
777.298	69598
777.445	69694
777.593	70463
777.741	70847
777.888	69366
778.036	69068
778.183	70303
778.331	71028
778.478	71052
778.626	70969
778.773	69648
778.92	70247
779.068	70950
779.215	71353
779.362	71434
779.51	71034
779.657	69516
779.804	69438
779.951	69335
780.098	69848
780.245	70209
780.392	70340
780.539	70193
780.686	69161
780.833	69282
780.98	68485
781.127	68920
781.274	69486
781.42	69738
781.567	69799
781.714	70031
781.861	69958
782.007	69693
782.154	69762
782.3	69676
782.447	69518
782.594	69335
782.74	69433
782.887	69426
783.033	67955
783.179	66729
783.326	67835
783.472	67152
783.618	67578
783.765	68343
783.911	68655
784.057	68858
784.203	68817
784.349	68606
784.495	68245
784.641	68460
784.787	68130
784.933	67279
785.079	67696
785.225	67898
785.371	67170
785.517	67324
785.663	67532
785.809	67745
785.954	67290
786.1	67290
786.246	66998
786.391	66394
786.537	65833
786.683	66358
786.828	66049
786.974	65973
787.119	66332
787.265	66272
787.41	65778
787.555	63975
787.701	65257
787.846	65389
787.991	64491
788.137	65066
788.282	65909
788.427	65418
788.572	64143
788.717	64412
788.862	64246
789.007	63555
789.152	62414
789.297	61974
789.442	60081
789.587	61194
789.732	63675
789.877	64126
790.022	61886
790.166	61720
790.311	63327
790.456	64583
790.601	64456
790.745	61724
790.89	60781
791.034	61681
791.179	62237
791.323	63251
791.468	62603
791.612	61526
791.757	61353
791.901	61697
792.045	61816
792.19	62925
792.334	61894
792.478	62420
792.622	62321
792.767	59912
792.911	59806
793.055	59677
793.199	60169
793.343	62383
793.487	63016
793.631	61321
793.775	62278
793.919	62751
794.063	61805
794.206	61107
794.35	59672
794.494	59039
794.638	59674
794.781	60587
794.925	60097
795.069	59533
795.212	59279
795.356	58647
795.499	58138
795.643	56979
795.786	55142
795.93	53388
796.073	52161
796.217	50748
796.36	1708
796.503	1683
796.646	1689
796.79	1688
