Data from QEP013861_14-43-55-528.txt Node
Date: Tue Jul 09 14:43:55 EDT 2019
User: xiyang
Spectrometer: QEP01386
Trigger mode: 4
Integration Time (sec): 2.000000E-1
Scans to average: 1
Electric dark correction enabled: false
Nonlinearity correction enabled: false
Boxcar width: 0
XAxis mode: Wavelengths
Number of Pixels in Spectrum: 1044
>>>>>Begin Spectral Data<<<<<
629.243	1697
629.421	1687
629.599	1683
629.777	1681
629.955	14726
630.132	14803
630.31	15158
630.488	15428
630.666	15522
630.843	15534
631.021	15274
631.199	15300
631.376	15144
631.554	15017
631.731	15177
631.909	15341
632.086	15626
632.264	15790
632.441	16024
632.618	16207
632.796	16059
632.973	16178
633.15	16001
633.327	16031
633.504	15806
633.682	15929
633.859	16107
634.036	16156
634.213	16281
634.39	16326
634.567	16477
634.744	16595
634.921	16775
635.098	16734
635.274	16666
635.451	16584
635.628	16587
635.805	16466
635.982	16437
636.158	16623
636.335	16774
636.511	16943
636.688	17034
636.865	17105
637.041	17160
637.218	17263
637.394	17337
637.571	17341
637.747	17350
637.923	17284
638.1	17289
638.276	17401
638.452	17481
638.628	17518
638.805	17500
638.981	17360
639.157	17198
639.333	17170
639.509	17198
639.685	17131
639.861	17080
640.037	16929
640.213	17528
640.389	17429
640.565	17223
640.74	17066
640.916	17081
641.092	17062
641.268	17245
641.443	17362
641.619	17261
641.795	17159
641.97	17139
642.146	17232
642.321	17622
642.497	17689
642.672	17602
642.848	17369
643.023	17325
643.199	17293
643.374	17326
643.549	17392
643.724	17137
643.9	17104
644.075	17433
644.25	17652
644.425	17611
644.6	17276
644.775	17041
644.95	16930
645.125	17130
645.3	17046
645.475	17027
645.65	16943
645.825	16956
646	16661
646.175	16525
646.349	16434
646.524	16777
646.699	16681
646.874	16547
647.048	16385
647.223	16262
647.397	16147
647.572	16142
647.746	16486
647.921	16413
648.095	16144
648.27	16111
648.444	16343
648.618	16657
648.793	16608
648.967	16261
649.141	15677
649.315	15184
649.49	15114
649.664	15662
649.838	16315
650.012	16605
650.186	16808
650.36	16830
650.534	16890
650.708	16874
650.882	16807
651.056	16686
651.23	16146
651.403	15759
651.577	15412
651.751	15687
651.925	16143
652.098	16494
652.272	16552
652.446	16494
652.619	16626
652.793	16536
652.966	16550
653.14	16343
653.313	16144
653.487	16514
653.66	16607
653.833	16654
654.007	16515
654.18	16196
654.353	15820
654.526	15808
654.7	15726
654.873	15858
655.046	15849
655.219	15564
655.392	15193
655.565	15024
655.738	14565
655.911	13321
656.084	11661
656.257	11221
656.43	13104
656.602	14653
656.775	15028
656.948	15064
657.121	15158
657.293	15091
657.466	15336
657.639	15740
657.811	15826
657.984	15680
658.156	15646
658.329	15577
658.501	15398
658.674	15494
658.846	15658
659.018	15358
659.191	15021
659.363	15044
659.535	15173
659.707	15241
659.88	15247
660.052	15233
660.224	15280
660.396	15222
660.568	15046
660.74	14927
660.912	14897
661.084	14950
661.256	15017
661.428	14967
661.6	14939
661.771	14820
661.943	14925
662.115	14717
662.287	14629
662.458	14488
662.63	14460
662.802	14468
662.973	14312
663.145	14045
663.316	13746
663.488	13883
663.659	14042
663.831	13942
664.002	13832
664.174	13652
664.345	13611
664.516	13737
664.687	13714
664.859	13762
665.03	13684
665.201	13540
665.372	13549
665.543	13455
665.714	13383
665.885	13273
666.056	13074
666.227	12862
666.398	12851
666.569	13001
666.74	12960
666.911	12940
667.082	12993
667.252	12959
667.423	12924
667.594	12531
667.764	12410
667.935	12599
668.106	12680
668.276	12712
668.447	12595
668.617	12552
668.788	12465
668.958	12507
669.129	12438
669.299	12376
669.469	12264
669.64	12085
669.81	12164
669.98	12231
670.15	12142
670.321	12046
670.491	12025
670.661	12005
670.831	12061
671.001	12075
671.171	11882
671.341	11771
671.511	11718
671.681	11509
671.851	11702
672.02	11732
672.19	11792
672.36	11785
672.53	11752
672.699	11694
672.869	11810
673.039	11783
673.208	11751
673.378	11703
673.547	11660
673.717	11660
673.886	11654
674.056	11641
674.225	11631
674.395	11594
674.564	11651
674.733	11500
674.903	11487
675.072	11423
675.241	11558
675.41	11497
675.579	11512
675.748	11591
675.917	11563
676.087	11656
676.256	11641
676.425	11547
676.593	11429
676.762	11409
676.931	11528
677.1	11435
677.269	11529
677.438	11657
677.606	11643
677.775	11650
677.944	11634
678.112	11565
678.281	11521
678.45	11463
678.618	11582
678.787	11592
678.955	11662
679.124	11670
679.292	11636
679.46	11628
679.629	11732
679.797	11643
679.965	11709
680.134	11813
680.302	11726
680.47	11728
680.638	11832
680.806	11853
680.974	11882
681.142	11902
681.31	11955
681.478	11992
681.646	12074
681.814	12107
681.982	12110
682.15	12302
682.318	12343
682.486	12323
682.653	12349
682.821	12269
682.989	12557
683.156	12639
683.324	12678
683.492	12737
683.659	12707
683.827	12606
683.994	12512
684.162	12480
684.329	12810
684.496	13193
684.664	13292
684.831	13481
684.998	13606
685.166	13684
685.333	13567
685.5	13501
685.667	13689
685.834	13960
686.001	14039
686.168	14139
686.335	14360
686.502	13958
686.669	11467
686.836	10007
687.003	10703
687.17	11269
687.337	11825
687.504	12500
687.67	13240
687.837	14015
688.004	14993
688.17	15455
688.337	15151
688.504	14691
688.67	14916
688.837	14721
689.003	15360
689.17	15069
689.336	15731
689.502	15677
689.669	15971
689.835	16650
690.001	16202
690.168	17309
690.334	16857
690.5	17329
690.666	18277
690.832	17713
690.998	18796
691.164	18808
691.33	18187
691.496	19200
691.662	19295
691.828	19356
691.994	20399
692.16	20044
692.326	19314
692.492	20251
692.657	20809
692.823	19900
692.989	20189
693.155	20663
693.32	20703
693.486	21828
693.651	21689
693.817	20943
693.982	20239
694.148	20851
694.313	21960
694.479	23152
694.644	22578
694.809	22550
694.975	23422
695.14	24206
695.305	24098
695.47	23961
695.635	23740
695.801	24854
695.966	24518
696.131	25473
696.296	26743
696.461	26797
696.626	27920
696.791	28440
696.955	28100
697.12	28207
697.285	28875
697.45	28771
697.615	27833
697.779	27405
697.944	28709
698.109	29346
698.273	30029
698.438	29615
698.603	28375
698.767	28074
698.932	28485
699.096	29853
699.26	28893
699.425	29964
699.589	31617
699.754	29738
699.918	29726
700.082	31568
700.246	31249
700.411	28547
700.575	29876
700.739	32217
700.903	32337
701.067	31525
701.231	32892
701.395	32591
701.559	29344
701.723	31858
701.887	33544
702.051	34054
702.214	32271
702.378	32352
702.542	32781
702.706	31585
702.869	34478
703.033	36213
703.197	36645
703.36	36495
703.524	36230
703.687	34357
703.851	33779
704.014	35671
704.178	37457
704.341	37674
704.505	37757
704.668	37649
704.831	38003
704.994	36741
705.158	35766
705.321	37139
705.484	37916
705.647	37563
705.81	38121
705.973	37999
706.136	38579
706.299	38564
706.462	38456
706.625	38741
706.788	39027
706.951	39947
707.114	39855
707.277	40218
707.439	40568
707.602	40541
707.765	39692
707.928	40110
708.09	41358
708.253	40875
708.415	40266
708.578	40591
708.74	40359
708.903	40567
709.065	41099
709.228	41626
709.39	41690
709.552	41666
709.715	42021
709.877	42060
710.039	42503
710.201	42647
710.364	43219
710.526	42843
710.688	42966
710.85	43278
711.012	42787
711.174	42928
711.336	43492
711.498	43718
711.66	43507
711.822	43291
711.983	43537
712.145	42727
712.307	43895
712.469	44621
712.63	44483
712.792	43528
712.954	43148
713.115	43265
713.277	44216
713.438	45290
713.6	45142
713.761	45155
713.923	45447
714.084	45243
714.245	44700
714.407	44918
714.568	44369
714.729	42273
714.891	43200
715.052	43329
715.213	45217
715.374	45543
715.535	44643
715.696	44918
715.857	44355
716.018	45165
716.179	43962
716.34	40652
716.501	38803
716.662	36035
716.823	37422
716.984	35762
717.144	34735
717.305	31519
717.466	36309
717.626	31190
717.787	34901
717.948	39352
718.108	34770
718.269	37083
718.429	30772
718.59	25725
718.75	33150
718.911	40302
719.071	32758
719.231	29934
719.392	33012
719.552	36601
719.712	34282
719.872	35428
720.033	29423
720.193	35140
720.353	34448
720.513	34529
720.673	36889
720.833	41037
720.993	42735
721.153	45282
721.313	47279
721.473	45312
721.632	43195
721.792	44627
721.952	47023
722.112	47206
722.271	42686
722.431	45228
722.591	44744
722.75	43203
722.91	46535
723.069	43389
723.229	35204
723.388	31831
723.548	36154
723.707	44043
723.867	41215
724.026	36005
724.185	40088
724.344	37081
724.504	38618
724.663	40988
724.822	43059
724.981	41616
725.14	34746
725.299	32823
725.458	43307
725.617	42492
725.776	41330
725.935	42565
726.094	40103
726.253	40234
726.412	35369
726.571	40868
726.729	47010
726.888	44570
727.047	45288
727.206	41113
727.364	41164
727.523	34719
727.681	31330
727.84	40084
727.998	44773
728.157	44414
728.315	46940
728.474	48654
728.632	43264
728.79	39052
728.949	35569
729.107	35762
729.265	38766
729.423	41015
729.582	46052
729.74	48550
729.898	44588
730.056	43559
730.214	38269
730.372	38714
730.53	45850
730.688	47080
730.846	41081
731.004	40416
731.161	42946
731.319	46517
731.477	45970
731.635	42602
731.792	41016
731.95	46960
732.108	50434
732.265	50721
732.423	49763
732.58	47030
732.738	48512
732.895	50135
733.053	49140
733.21	47424
733.368	47525
733.525	50276
733.682	53170
733.839	53834
733.997	53446
734.154	53208
734.311	50315
734.468	50935
734.625	52344
734.782	49934
734.939	48822
735.096	51291
735.253	51612
735.41	51414
735.567	50043
735.724	51363
735.881	51360
736.038	49302
736.194	49696
736.351	49738
736.508	50512
736.665	51655
736.821	49779
736.978	50932
737.134	52365
737.291	52837
737.447	53277
737.604	53091
737.76	52947
737.917	54008
738.073	52606
738.229	50699
738.386	51681
738.542	51817
738.698	51561
738.854	50323
739.01	50719
739.167	52142
739.323	52907
739.479	52789
739.635	52238
739.791	53540
739.947	53181
740.103	53413
740.259	54219
740.414	53823
740.57	53451
740.726	53041
740.882	51424
741.038	51355
741.193	53679
741.349	52919
741.505	51888
741.66	53593
741.816	54268
741.971	54417
742.127	52711
742.282	52230
742.438	53664
742.593	55062
742.748	55503
742.904	55265
743.059	54794
743.214	55244
743.37	55327
743.525	55295
743.68	55271
743.835	55266
743.99	54015
744.145	54168
744.3	54629
744.455	53310
744.61	53635
744.765	54316
744.92	55055
745.075	55392
745.23	55310
745.384	55262
745.539	55684
745.694	55558
745.849	55517
746.003	54890
746.158	53602
746.313	54724
746.467	55506
746.622	55845
746.776	55845
746.931	56070
747.085	55981
747.239	55580
747.394	55638
747.548	55194
747.702	55436
747.857	55596
748.011	55555
748.165	55273
748.319	55561
748.473	55530
748.627	55526
748.781	55446
748.935	55024
749.089	54105
749.243	54241
749.397	52229
749.551	53657
749.705	54811
749.859	55059
750.013	55398
750.166	55405
750.32	55323
750.474	54795
750.628	54502
750.781	55006
750.935	53648
751.088	52908
751.242	54554
751.395	54859
751.549	55217
751.702	55561
751.856	55660
752.009	55299
752.162	54030
752.316	53745
752.469	53786
752.622	54590
752.775	54979
752.928	54148
753.082	53363
753.235	54134
753.388	54865
753.541	55156
753.694	54972
753.847	54814
754	54683
754.152	54656
754.305	54832
754.458	54448
754.611	54151
754.764	54457
754.916	54766
755.069	54813
755.222	54678
755.374	53763
755.527	53526
755.68	54286
755.832	54061
755.985	54412
756.137	54659
756.289	54700
756.442	54777
756.594	54413
756.746	53505
756.899	53517
757.051	54407
757.203	53797
757.355	53193
757.508	53990
757.66	54174
757.812	54048
757.964	53970
758.116	53600
758.268	52580
758.42	51990
758.572	51594
758.724	52493
758.875	53134
759.027	52952
759.179	49102
759.331	35987
759.482	25088
759.634	21292
759.786	18939
759.937	15610
760.089	13118
760.241	11863
760.392	11272
760.544	11363
760.695	12576
760.846	13577
760.998	16557
761.149	18055
761.3	23685
761.452	25798
761.603	34367
761.754	42540
761.905	39854
762.057	35084
762.208	29850
762.359	26078
762.51	28452
762.661	22707
762.812	26916
762.963	25549
763.114	22532
763.265	29659
763.415	24873
763.566	25164
763.717	32293
763.868	26130
764.018	27861
764.169	35529
764.32	29391
764.47	30194
764.621	38612
764.772	34403
764.922	31750
765.072	40121
765.223	40080
765.373	34026
765.524	39487
765.674	42945
765.824	38048
765.975	37348
766.125	44402
766.275	44459
766.425	39649
766.575	43527
766.726	47875
766.876	46638
767.026	43783
767.176	46950
767.326	49875
767.476	49107
767.625	46632
767.775	48388
767.925	49480
768.075	49796
768.225	48280
768.375	49717
768.524	50954
768.674	51206
768.824	49399
768.973	48698
769.123	49347
769.272	50633
769.422	50414
769.571	49979
769.721	49482
769.87	49397
770.019	50850
770.169	51101
770.318	51382
770.467	51960
770.617	51759
770.766	51587
770.915	50356
771.064	50053
771.213	50117
771.362	49082
771.511	49738
771.66	50702
771.809	50829
771.958	50743
772.107	50410
772.256	50171
772.405	50591
772.554	50382
772.702	49965
772.851	50603
773	50885
773.149	50685
773.297	50722
773.446	50866
773.594	50988
773.743	51169
773.891	51016
774.04	50374
774.188	49323
774.337	50037
774.485	50140
774.633	49412
774.782	48230
774.93	49136
775.078	49863
775.226	50489
775.375	50591
775.523	50805
775.671	50749
775.819	50390
775.967	50085
776.115	50363
776.263	50439
776.411	50512
776.559	50479
776.707	50514
776.854	50441
777.002	50004
777.15	49246
777.298	48872
777.445	48754
777.593	49586
777.741	49590
777.888	48730
778.036	48445
778.183	49432
778.331	49741
778.478	49984
778.626	49850
778.773	48838
778.92	49332
779.068	49908
779.215	50110
779.362	49960
779.51	49772
779.657	48996
779.804	48705
779.951	48496
780.098	49083
780.245	49263
780.392	49437
780.539	49316
780.686	48526
780.833	48771
780.98	48165
781.127	48554
781.274	48854
781.42	48890
781.567	49115
781.714	49259
781.861	49261
782.007	49000
782.154	49085
782.3	49065
782.447	48940
782.594	48914
782.74	48914
782.887	48756
783.033	47808
783.179	47017
783.326	47721
783.472	46989
783.618	47850
783.765	48265
783.911	48337
784.057	48496
784.203	48387
784.349	48325
784.495	48317
784.641	48262
784.787	47898
784.933	47421
785.079	47771
785.225	47861
785.371	47256
785.517	47270
785.663	47620
785.809	47518
785.954	47378
786.1	47493
786.246	47134
786.391	46833
786.537	46394
786.683	46903
786.828	46655
786.974	46462
787.119	46678
787.265	46681
787.41	46352
787.555	45324
787.701	46001
787.846	46071
787.991	45656
788.137	45849
788.282	46605
788.427	46226
788.572	45266
788.717	45518
788.862	45271
789.007	44801
789.152	44118
789.297	43732
789.442	42493
789.587	43166
789.732	44850
789.877	45189
790.022	43741
790.166	43350
790.311	44775
790.456	45622
790.601	45544
790.745	43724
790.89	42891
791.034	43594
791.179	43940
791.323	44567
791.468	44195
791.612	43521
791.757	43207
791.901	43409
792.045	43719
792.19	44542
792.334	43908
792.478	44136
792.622	44178
792.767	42359
792.911	42260
793.055	42203
793.199	42608
793.343	44109
793.487	44526
793.631	43436
793.775	44013
793.919	44491
794.063	43666
794.206	43133
794.35	42287
794.494	41774
794.638	42123
794.781	42818
794.925	42707
795.069	42203
795.212	42043
795.356	41504
795.499	41245
795.643	40459
795.786	38999
795.93	37949
796.073	37027
796.217	35807
796.36	1700
796.503	1684
796.646	1685
796.79	1683
