Data from QEP013861_14-43-54-928.txt Node
Date: Tue Jul 09 14:43:54 EDT 2019
User: xiyang
Spectrometer: QEP01386
Trigger mode: 4
Integration Time (sec): 2.000000E-1
Scans to average: 1
Electric dark correction enabled: false
Nonlinearity correction enabled: false
Boxcar width: 0
XAxis mode: Wavelengths
Number of Pixels in Spectrum: 1044
>>>>>Begin Spectral Data<<<<<
629.243	1693
629.421	1687
629.599	1685
629.777	1689
629.955	14679
630.132	14730
630.31	15062
630.488	15402
630.666	15453
630.843	15472
631.021	15363
631.199	15152
631.376	14952
631.554	14908
631.731	15093
631.909	15284
632.086	15586
632.264	15755
632.441	15978
632.618	15998
632.796	16017
632.973	16030
633.15	15988
633.327	15990
633.504	15767
633.682	15839
633.859	16006
634.036	16114
634.213	16243
634.39	16251
634.567	16398
634.744	16562
634.921	16657
635.098	16602
635.274	16618
635.451	16409
635.628	16462
635.805	16362
635.982	16314
636.158	16456
636.335	16727
636.511	16830
636.688	16927
636.865	17015
637.041	17109
637.218	17201
637.394	17246
637.571	17164
637.747	17226
637.923	17196
638.1	17241
638.276	17377
638.452	17272
638.628	17432
638.805	17358
638.981	17224
639.157	17066
639.333	16991
639.509	17028
639.685	17089
639.861	16839
640.037	16828
640.213	17356
640.389	17394
640.565	17011
640.74	16871
640.916	16997
641.092	17071
641.268	17074
641.443	17126
641.619	17147
641.795	17042
641.97	16949
642.146	17170
642.321	17499
642.497	17467
642.672	17390
642.848	17231
643.023	16996
643.199	17150
643.374	17324
643.549	17240
643.724	16961
643.9	16870
644.075	17264
644.25	17488
644.425	17357
644.6	17136
644.775	16846
644.95	16725
645.125	16940
645.3	16938
645.475	16680
645.65	16639
645.825	16814
646	16484
646.175	16279
646.349	16288
646.524	16577
646.699	16549
646.874	16281
647.048	16128
647.223	15929
647.397	15994
647.572	15917
647.746	16276
647.921	16086
648.095	16053
648.27	15894
648.444	16113
648.618	16388
648.793	16322
648.967	15961
649.141	15436
649.315	14946
649.49	14866
649.664	15492
649.838	16094
650.012	16428
650.186	16492
650.36	16577
650.534	16670
650.708	16672
650.882	16510
651.056	16350
651.23	16058
651.403	15441
651.577	15158
651.751	15361
651.925	15966
652.098	16292
652.272	16195
652.446	16247
652.619	16323
652.793	16311
652.966	16318
653.14	16071
653.313	15971
653.487	16210
653.66	16234
653.833	16302
654.007	16115
654.18	15862
654.353	15598
654.526	15536
654.7	15481
654.873	15645
655.046	15548
655.219	15187
655.392	15032
655.565	14798
655.738	14318
655.911	13173
656.084	11485
656.257	11070
656.43	12832
656.602	14324
656.775	14661
656.948	14734
657.121	14896
657.293	14791
657.466	15035
657.639	15485
657.811	15499
657.984	15393
658.156	15316
658.329	15230
658.501	15136
658.674	15178
658.846	15323
659.018	15062
659.191	14717
659.363	14689
659.535	15025
659.707	14889
659.88	14976
660.052	15061
660.224	14999
660.396	14908
660.568	14828
660.74	14568
660.912	14550
661.084	14686
661.256	14720
661.428	14600
661.6	14668
661.771	14445
661.943	14447
662.115	14356
662.287	14301
662.458	14200
662.63	14090
662.802	14063
662.973	13925
663.145	13685
663.316	13335
663.488	13558
663.659	13641
663.831	13604
664.002	13477
664.174	13395
664.345	13137
664.516	13365
664.687	13399
664.859	13347
665.03	13351
665.201	13233
665.372	13142
665.543	13092
665.714	13064
665.885	13016
666.056	12807
666.227	12478
666.398	12570
666.569	12634
666.74	12611
666.911	12645
667.082	12652
667.252	12554
667.423	12528
667.594	12151
667.764	12030
667.935	12195
668.106	12347
668.276	12313
668.447	12252
668.617	12149
668.788	12172
668.958	12136
669.129	12155
669.299	12125
669.469	11868
669.64	11807
669.81	11796
669.98	11906
670.15	11786
670.321	11682
670.491	11694
670.661	11701
670.831	11689
671.001	11643
671.171	11514
671.341	11443
671.511	11302
671.681	11177
671.851	11346
672.02	11397
672.19	11467
672.36	11425
672.53	11322
672.699	11409
672.869	11471
673.039	11393
673.208	11354
673.378	11316
673.547	11401
673.717	11253
673.886	11287
674.056	11292
674.225	11295
674.395	11286
674.564	11263
674.733	11112
674.903	11077
675.072	11138
675.241	11161
675.41	11203
675.579	11165
675.748	11228
675.917	11306
676.087	11232
676.256	11272
676.425	11196
676.593	11043
676.762	11079
676.931	11100
677.1	11097
677.269	11219
677.438	11266
677.606	11282
677.775	11304
677.944	11240
678.112	11224
678.281	11158
678.45	11157
678.618	11230
678.787	11243
678.955	11277
679.124	11324
679.292	11245
679.46	11242
679.629	11275
679.797	11367
679.965	11283
680.134	11441
680.302	11285
680.47	11378
680.638	11407
680.806	11475
680.974	11462
681.142	11565
681.31	11570
681.478	11611
681.646	11742
681.814	11698
681.982	11735
682.15	11802
682.318	11899
682.486	12037
682.653	11978
682.821	11891
682.989	12106
683.156	12189
683.324	12315
683.492	12342
683.659	12336
683.827	12171
683.994	12130
684.162	12080
684.329	12448
684.496	12869
684.664	12963
684.831	13096
684.998	13143
685.166	13270
685.333	13247
685.5	13166
685.667	13303
685.834	13488
686.001	13706
686.168	13763
686.335	13989
686.502	13554
686.669	11118
686.836	9838
687.003	10434
687.17	10909
687.337	11541
687.504	12221
687.67	12898
687.837	13722
688.004	14575
688.17	14932
688.337	14748
688.504	14277
688.67	14578
688.837	14444
689.003	14836
689.17	14760
689.336	15328
689.502	15299
689.669	15581
689.835	16279
690.001	15816
690.168	16972
690.334	16515
690.5	16883
690.666	17794
690.832	17248
690.998	18340
691.164	18502
691.33	17740
691.496	18830
691.662	18963
691.828	19016
691.994	20120
692.16	19625
692.326	18965
692.492	19892
692.657	20510
692.823	19550
692.989	19713
693.155	20356
693.32	20353
693.486	21576
693.651	21429
693.817	20577
693.982	19943
694.148	20642
694.313	21690
694.479	22986
694.644	22367
694.809	22223
694.975	23144
695.14	23915
695.305	23903
695.47	23707
695.635	23585
695.801	24589
695.966	24324
696.131	25228
696.296	26429
696.461	26782
696.626	27695
696.791	28171
696.955	27925
697.12	28007
697.285	28812
697.45	28620
697.615	27562
697.779	27354
697.944	28530
698.109	29283
698.273	30135
698.438	29627
698.603	28491
698.767	28044
698.932	28433
699.096	29839
699.26	28923
699.425	30020
699.589	31642
699.754	29894
699.918	29745
700.082	31579
700.246	31363
700.411	28537
700.575	30011
700.739	32318
700.903	32471
701.067	31646
701.231	32819
701.395	32807
701.559	29585
701.723	32099
701.887	33992
702.051	34189
702.214	32462
702.378	32670
702.542	33035
702.706	31893
702.869	34701
703.033	36427
703.197	36952
703.36	36892
703.524	36369
703.687	34643
703.851	34123
704.014	36166
704.178	37876
704.341	37999
704.505	38169
704.668	37995
704.831	38497
704.994	37147
705.158	36234
705.321	37483
705.484	38308
705.647	37890
705.81	38525
705.973	38416
706.136	39157
706.299	39092
706.462	38867
706.625	39261
706.788	39394
706.951	40662
707.114	40520
707.277	40731
707.439	41283
707.602	41103
707.765	40263
707.928	40905
708.09	41922
708.253	41594
708.415	40918
708.578	41351
708.74	41060
708.903	41213
709.065	41650
709.228	42222
709.39	42409
709.552	42480
709.715	42756
709.877	42723
710.039	43070
710.201	43414
710.364	43914
710.526	43504
710.688	43567
710.85	43729
711.012	43517
711.174	43725
711.336	44200
711.498	44390
711.66	44459
711.822	44077
711.983	44425
712.145	43513
712.307	44765
712.469	45501
712.63	45243
712.792	44536
712.954	43846
713.115	44052
713.277	45181
713.438	46098
713.6	46045
713.761	45944
713.923	46217
714.084	45980
714.245	45644
714.407	45903
714.568	45290
714.729	43145
714.891	44272
715.052	44242
715.213	46100
715.374	46487
715.535	45470
715.696	45666
715.857	45212
716.018	46305
716.179	44997
716.34	41476
716.501	39588
716.662	36908
716.823	38335
716.984	36450
717.144	35622
717.305	32249
717.466	37044
717.626	31893
717.787	35671
717.948	40167
718.108	35614
718.269	37914
718.429	31524
718.59	26409
718.75	33840
718.911	41168
719.071	33708
719.231	30694
719.392	33662
719.552	37610
719.712	35082
719.872	36191
720.033	30001
720.193	35966
720.353	35208
720.513	35290
720.673	37656
720.833	42101
720.993	43504
721.153	46591
721.313	48330
721.473	46516
721.632	44149
721.792	45700
721.952	48203
722.112	48100
722.271	43705
722.431	46367
722.591	45927
722.75	44324
722.91	47791
723.069	44526
723.229	36092
723.388	32578
723.548	37059
723.707	45250
723.867	42125
724.026	36726
724.185	41111
724.344	38029
724.504	39612
724.663	42110
724.822	44099
724.981	42635
725.14	35547
725.299	33636
725.458	44701
725.617	43559
725.776	42363
725.935	43716
726.094	41060
726.253	41236
726.412	36235
726.571	41775
726.729	48404
726.888	45786
727.047	46466
727.206	42277
727.364	42185
727.523	35521
727.681	32159
727.84	41125
727.998	45970
728.157	45660
728.315	48129
728.474	50051
728.632	44256
728.79	40210
728.949	36520
729.107	36920
729.265	39921
729.423	42261
729.582	47435
729.74	49801
729.898	45770
730.056	44831
730.214	39349
730.372	39705
730.53	47096
730.688	48240
730.846	42184
731.004	41366
731.161	44205
731.319	47899
731.477	47299
731.635	43590
731.792	42200
731.95	48139
732.108	51758
732.265	51994
732.423	50979
732.58	48499
732.738	49493
732.895	51502
733.053	50389
733.21	48519
733.368	48954
733.525	51680
733.682	54712
733.839	55316
733.997	54739
734.154	54741
734.311	51719
734.468	52565
734.625	54017
734.782	51476
734.939	50124
735.096	52643
735.253	52983
735.41	52785
735.567	51443
735.724	52560
735.881	52758
736.038	50793
736.194	51027
736.351	51092
736.508	51975
736.665	53014
736.821	51109
736.978	52343
737.134	53820
737.291	54407
737.447	54586
737.604	54684
737.76	54495
737.917	55489
738.073	53962
738.229	52065
738.386	53034
738.542	53431
738.698	53032
738.854	51846
739.01	52210
739.167	53585
739.323	54227
739.479	54229
739.635	53865
739.791	55027
739.947	54450
740.103	54892
740.259	55786
740.414	55345
740.57	54768
740.726	54736
740.882	52972
741.038	52811
741.193	55317
741.349	54498
741.505	53590
741.66	55120
741.816	55718
741.971	55885
742.127	54213
742.282	53764
742.438	55078
742.593	56547
742.748	57016
742.904	56903
743.059	56318
743.214	56724
743.37	56988
743.525	56726
743.68	56848
743.835	56773
743.99	55623
744.145	55825
744.3	56155
744.455	54875
744.61	55260
744.765	55992
744.92	56660
745.075	57010
745.23	57083
745.384	57003
745.539	57285
745.694	57233
745.849	57265
746.003	56569
746.158	54981
746.313	56111
746.467	57075
746.622	57210
746.776	57373
746.931	57535
747.085	57358
747.239	57298
747.394	57288
747.548	57082
747.702	57133
747.857	57441
748.011	56982
748.165	56641
748.319	57192
748.473	57335
748.627	57279
748.781	57153
748.935	56691
749.089	55798
749.243	55828
749.397	53859
749.551	55026
749.705	56418
749.859	56697
750.013	56973
750.166	57101
750.32	56965
750.474	56475
750.628	56066
750.781	56545
750.935	54861
751.088	54330
751.242	56200
751.395	56560
751.549	56893
751.702	57108
751.856	57290
752.009	56844
752.162	55508
752.316	55253
752.469	55505
752.622	56156
752.775	56267
752.928	55719
753.082	54886
753.235	55697
753.388	56362
753.541	56486
753.694	56496
753.847	56659
754	56199
754.152	56351
754.305	56562
754.458	55855
754.611	55595
754.764	56064
754.916	56352
755.069	56465
755.222	56344
755.374	55485
755.527	54974
755.68	55842
755.832	55681
755.985	55952
756.137	56207
756.289	56258
756.442	56284
756.594	56038
756.746	54967
756.899	55226
757.051	55565
757.203	55416
757.355	54989
757.508	55482
757.66	55796
757.812	55649
757.964	55697
758.116	54917
758.268	54062
758.42	53232
758.572	52922
758.724	53839
758.875	54616
759.027	54330
759.179	50399
759.331	36992
759.482	25705
759.634	21852
759.786	19339
759.937	16026
760.089	13475
760.241	12134
760.392	11538
760.544	11698
760.695	12922
760.846	13901
760.998	17017
761.149	18693
761.3	24340
761.452	26504
761.603	35447
761.754	43675
761.905	41067
762.057	36074
762.208	30711
762.359	26750
762.51	29368
762.661	23386
762.812	27669
762.963	26370
763.114	23220
763.265	30548
763.415	25493
763.566	25828
763.717	33294
763.868	26889
764.018	28754
764.169	36543
764.32	30214
764.47	30921
764.621	39680
764.772	35282
764.922	32618
765.072	41309
765.223	41256
765.373	34938
765.524	40586
765.674	44075
765.824	39211
765.975	38480
766.125	45441
766.275	45682
766.425	40721
766.575	44673
766.726	49195
766.876	48311
767.026	45008
767.176	48279
767.326	51193
767.476	50666
767.625	47906
767.775	50017
767.925	50829
768.075	51218
768.225	49705
768.375	50875
768.524	52553
768.674	52539
768.824	50778
768.973	50027
769.123	50717
769.272	51966
769.422	51887
769.571	51372
769.721	50756
769.87	50719
770.019	52422
770.169	52675
770.318	52846
770.467	53197
770.617	53341
770.766	53273
770.915	51887
771.064	51462
771.213	51620
771.362	50571
771.511	51150
771.66	51992
771.809	51993
771.958	52062
772.107	51872
772.256	51627
772.405	52102
772.554	51687
772.702	51306
772.851	51970
773	52335
773.149	52110
773.297	52182
773.446	52235
773.594	52536
773.743	52549
773.891	52554
774.04	51958
774.188	50799
774.337	51312
774.485	51544
774.633	50769
774.782	49674
774.93	50344
775.078	51126
775.226	51867
775.375	52097
775.523	52060
775.671	52156
775.819	51772
775.967	51561
776.115	51818
776.263	51861
776.411	51814
776.559	51878
776.707	51876
776.854	51773
777.002	51307
777.15	50494
777.298	50070
777.445	50088
777.593	50925
777.741	50951
777.888	50159
778.036	49732
778.183	50636
778.331	51066
778.478	51415
778.626	51317
778.773	50240
778.92	50689
779.068	51065
779.215	51375
779.362	51459
779.51	51304
779.657	50175
779.804	50130
779.951	49941
780.098	50348
780.245	50553
780.392	50850
780.539	50552
780.686	50002
780.833	50007
780.98	49411
781.127	49714
781.274	49994
781.42	50372
781.567	50325
781.714	50506
781.861	50492
782.007	50502
782.154	50293
782.3	50507
782.447	50179
782.594	50030
782.74	50268
782.887	50152
783.033	49058
783.179	48210
783.326	49087
783.472	48427
783.618	48814
783.765	49523
783.911	49825
784.057	49810
784.203	49666
784.349	49560
784.495	49432
784.641	49485
784.787	49261
784.933	48774
785.079	49051
785.225	49163
785.371	48725
785.517	48675
785.663	48886
785.809	49050
785.954	48814
786.1	48589
786.246	48474
786.391	47982
786.537	47662
786.683	48094
786.828	47823
786.974	47551
787.119	47907
787.265	47839
787.41	47527
787.555	46437
787.701	47102
787.846	47322
787.991	46672
788.137	47157
788.282	47717
788.427	47512
788.572	46591
788.717	46713
788.862	46619
789.007	46053
789.152	45205
789.297	44969
789.442	43606
789.587	44365
789.732	46218
789.877	46297
790.022	45021
790.166	44686
790.311	45847
790.456	46740
790.601	46838
790.745	44795
790.89	44127
791.034	44878
791.179	45142
791.323	45883
791.468	45457
791.612	44590
791.757	44312
791.901	44575
792.045	44768
792.19	45912
792.334	44939
792.478	45477
792.622	45400
792.767	43460
792.911	43402
793.055	43483
793.199	43718
793.343	45200
793.487	45811
793.631	44564
793.775	45222
793.919	45589
794.063	44901
794.206	44399
794.35	43438
794.494	42719
794.638	43250
794.781	44025
794.925	43988
795.069	43255
795.212	43182
795.356	42778
795.499	42118
795.643	41598
795.786	40182
795.93	38960
796.073	37995
796.217	36978
796.36	1700
796.503	1686
796.646	1687
796.79	1686
