Data from QEP013861_11-00-40-974.txt Node
Date: Tue May 21 11:00:40 EDT 2019
User: Andrew
Spectrometer: QEP01386
Trigger mode: 4
Integration Time (sec): 1.550000E-1
Scans to average: 1
Electric dark correction enabled: false
Nonlinearity correction enabled: false
Boxcar width: 0
XAxis mode: Wavelengths
Number of Pixels in Spectrum: 1044
>>>>>Begin Spectral Data<<<<<
629.243	1697
629.421	1689
629.599	1684
629.777	1683
629.955	20775
630.132	20860
630.31	20851
630.488	21047
630.666	21085
630.843	21276
631.021	21327
631.199	21438
631.376	21495
631.554	21565
631.731	21708
631.909	21834
632.086	21878
632.264	22033
632.441	22051
632.618	22087
632.796	22356
632.973	22347
633.15	22544
633.327	22594
633.504	22647
633.682	22742
633.859	22737
634.036	22922
634.213	22970
634.39	23091
634.567	23204
634.744	23254
634.921	23387
635.098	23493
635.274	23564
635.451	23762
635.628	23818
635.805	23959
635.982	24038
636.158	23992
636.335	24151
636.511	24213
636.688	24274
636.865	24404
637.041	24465
637.218	24628
637.394	24683
637.571	24856
637.747	24868
637.923	25053
638.1	24986
638.276	25204
638.452	25353
638.628	25359
638.805	25370
638.981	25434
639.157	25577
639.333	25701
639.509	25870
639.685	25876
639.861	25915
640.037	26058
640.213	26258
640.389	26253
640.565	26264
640.74	26409
640.916	26502
641.092	26553
641.268	26726
641.443	26753
641.619	26713
641.795	26972
641.97	26936
642.146	27083
642.321	27184
642.497	27311
642.672	27379
642.848	27457
643.023	27601
643.199	27653
643.374	27577
643.549	27729
643.724	27870
643.9	27975
644.075	28114
644.25	28209
644.425	28235
644.6	28337
644.775	28293
644.95	28438
645.125	28508
645.3	28597
645.475	28653
645.65	28736
645.825	28917
646	28998
646.175	29012
646.349	29033
646.524	29174
646.699	29186
646.874	29312
647.048	29428
647.223	29462
647.397	29555
647.572	29610
647.746	29677
647.921	29832
648.095	29845
648.27	29908
648.444	30009
648.618	30110
648.793	30168
648.967	30260
649.141	30231
649.315	30354
649.49	30360
649.664	30453
649.838	30452
650.012	30601
650.186	30628
650.36	30868
650.534	30808
650.708	30893
650.882	30805
651.056	30983
651.23	31067
651.403	31160
651.577	31221
651.751	31299
651.925	31222
652.098	31446
652.272	31473
652.446	31641
652.619	31554
652.793	31800
652.966	31790
653.14	31870
653.313	32008
653.487	31966
653.66	32096
653.833	32173
654.007	32130
654.18	32334
654.353	32398
654.526	32346
654.7	32413
654.873	32468
655.046	32570
655.219	32589
655.392	32718
655.565	32667
655.738	32749
655.911	32887
656.084	32997
656.257	33021
656.43	33012
656.602	33243
656.775	33198
656.948	33275
657.121	33311
657.293	33311
657.466	33497
657.639	33453
657.811	33457
657.984	33577
658.156	33695
658.329	33672
658.501	33711
658.674	33722
658.846	33834
659.018	33962
659.191	34130
659.363	34213
659.535	34040
659.707	34172
659.88	34276
660.052	34285
660.224	34429
660.396	34470
660.568	34511
660.74	34393
660.912	34649
661.084	34604
661.256	34780
661.428	34735
661.6	34801
661.771	34833
661.943	34911
662.115	34937
662.287	34971
662.458	35114
662.63	35072
662.802	35235
662.973	35282
663.145	35386
663.316	35346
663.488	35334
663.659	35411
663.831	35448
664.002	35680
664.174	35569
664.345	35552
664.516	35718
664.687	35771
664.859	35890
665.03	35947
665.201	35856
665.372	35969
665.543	36031
665.714	35965
665.885	36076
666.056	36166
666.227	36200
666.398	36202
666.569	36265
666.74	36344
666.911	36482
667.082	36537
667.252	36482
667.423	36481
667.594	36700
667.764	36724
667.935	36840
668.106	36784
668.276	36845
668.447	36832
668.617	36913
668.788	36891
668.958	37087
669.129	37128
669.299	37083
669.469	37184
669.64	37255
669.81	37408
669.98	37411
670.15	37446
670.321	37585
670.491	37416
670.661	37561
670.831	37610
671.001	37505
671.171	37661
671.341	37656
671.511	37647
671.681	37801
671.851	37939
672.02	37777
672.19	37980
672.36	38016
672.53	37900
672.699	38201
672.869	38088
673.039	38200
673.208	38176
673.378	38280
673.547	38276
673.717	38354
673.886	38552
674.056	38569
674.225	38471
674.395	38485
674.564	38624
674.733	38727
674.903	38837
675.072	38756
675.241	38914
675.41	38982
675.579	38833
675.748	38940
675.917	38901
676.087	39025
676.256	38978
676.425	39084
676.593	39059
676.762	39080
676.931	39166
677.1	39242
677.269	39401
677.438	39329
677.606	39536
677.775	39528
677.944	39493
678.112	39574
678.281	39535
678.45	39539
678.618	39485
678.787	39681
678.955	39824
679.124	39734
679.292	39878
679.46	39902
679.629	39917
679.797	40057
679.965	40091
680.134	39976
680.302	40301
680.47	40189
680.638	40113
680.806	40267
680.974	40346
681.142	40242
681.31	40460
681.478	40383
681.646	40439
681.814	40436
681.982	40663
682.15	40566
682.318	40811
682.486	40662
682.653	40656
682.821	40729
682.989	40751
683.156	40886
683.324	40802
683.492	41050
683.659	40804
683.827	41082
683.994	41014
684.162	41236
684.329	41163
684.496	41196
684.664	41206
684.831	41165
684.998	41360
685.166	41445
685.333	41496
685.5	41341
685.667	41385
685.834	41391
686.001	41681
686.168	41590
686.335	41506
686.502	41583
686.669	41650
686.836	41763
687.003	41750
687.17	41713
687.337	41893
687.504	41875
687.67	42076
687.837	41822
688.004	42059
688.17	41914
688.337	42120
688.504	41962
688.67	42193
688.837	42265
689.003	42121
689.17	42306
689.336	42274
689.502	42528
689.669	42411
689.835	42740
690.001	42573
690.168	42604
690.334	42476
690.5	42653
690.666	42631
690.832	42734
690.998	42801
691.164	42784
691.33	42842
691.496	42890
691.662	42993
691.828	43003
691.994	43022
692.16	43059
692.326	43102
692.492	42988
692.657	43151
692.823	43077
692.989	43224
693.155	43097
693.32	43283
693.486	43384
693.651	43281
693.817	43398
693.982	43437
694.148	43575
694.313	43602
694.479	43630
694.644	43684
694.809	43719
694.975	43563
695.14	43662
695.305	43626
695.47	43685
695.635	43695
695.801	43936
695.966	43741
696.131	43903
696.296	43880
696.461	43877
696.626	43939
696.791	44036
696.955	44137
697.12	44220
697.285	44202
697.45	44282
697.615	44257
697.779	44334
697.944	44309
698.109	44591
698.273	44622
698.438	44375
698.603	44372
698.767	44424
698.932	44451
699.096	44400
699.26	44382
699.425	44493
699.589	44486
699.754	44733
699.918	44719
700.082	44670
700.246	44859
700.411	44838
700.575	44911
700.739	45000
700.903	44931
701.067	45032
701.231	45090
701.395	44964
701.559	45077
701.723	45043
701.887	45068
702.051	45113
702.214	45068
702.378	45104
702.542	45271
702.706	45265
702.869	45395
703.033	45281
703.197	45245
703.36	45429
703.524	45575
703.687	45675
703.851	45551
704.014	45687
704.178	45805
704.341	45754
704.505	45689
704.668	45771
704.831	45741
704.994	45853
705.158	45792
705.321	45692
705.484	45717
705.647	45866
705.81	45873
705.973	45807
706.136	45809
706.299	45879
706.462	46033
706.625	45939
706.788	46085
706.951	46177
707.114	46263
707.277	46076
707.439	46455
707.602	46351
707.765	46346
707.928	46445
708.09	46242
708.253	46261
708.415	46244
708.578	46349
708.74	46395
708.903	46399
709.065	46349
709.228	46431
709.39	46489
709.552	46374
709.715	46658
709.877	46667
710.039	46650
710.201	46767
710.364	46896
710.526	47058
710.688	46874
710.85	47010
711.012	46906
711.174	46994
711.336	47039
711.498	46981
711.66	47077
711.822	46802
711.983	46938
712.145	46862
712.307	47119
712.469	47054
712.63	46985
712.792	46998
712.954	47027
713.115	47274
713.277	47464
713.438	47375
713.6	47372
713.761	47237
713.923	47405
714.084	47411
714.245	47511
714.407	47449
714.568	47311
714.729	47526
714.891	47566
715.052	47469
715.213	47334
715.374	47448
715.535	47548
715.696	47534
715.857	47587
716.018	47603
716.179	47639
716.34	47575
716.501	47626
716.662	47691
716.823	47839
716.984	47914
717.144	48098
717.305	48000
717.466	48040
717.626	48056
717.787	47980
717.948	48001
718.108	48021
718.269	47799
718.429	47915
718.59	48008
718.75	47884
718.911	47861
719.071	47964
719.231	48144
719.392	48150
719.552	48154
719.712	48161
719.872	48103
720.033	48309
720.193	48285
720.353	48248
720.513	48296
720.673	48121
720.833	48177
720.993	48171
721.153	48340
721.313	48360
721.473	48387
721.632	48306
721.792	48295
721.952	48326
722.112	48520
722.271	48370
722.431	48646
722.591	48684
722.75	48688
722.91	48976
723.069	48639
723.229	48723
723.388	48629
723.548	48626
723.707	48820
723.867	48806
724.026	48741
724.185	48792
724.344	48619
724.504	48624
724.663	48638
724.822	48647
724.981	48715
725.14	48759
725.299	48867
725.458	48828
725.617	48763
725.776	48758
725.935	48979
726.094	48984
726.253	49127
726.412	49062
726.571	49211
726.729	49233
726.888	49060
727.047	49327
727.206	49251
727.364	49120
727.523	49296
727.681	49338
727.84	49238
727.998	49262
728.157	49123
728.315	49238
728.474	49248
728.632	49098
728.79	49058
728.949	48841
729.107	48913
729.265	49142
729.423	48968
729.582	49113
729.74	48972
729.898	49433
730.056	49235
730.214	49244
730.372	49291
730.53	49219
730.688	49460
730.846	49473
731.004	49488
731.161	49537
731.319	49561
731.477	49520
731.635	49476
731.792	49622
731.95	49524
732.108	49427
732.265	49536
732.423	49398
732.58	49215
732.738	49338
732.895	49363
733.053	49540
733.21	49527
733.368	49618
733.525	49607
733.682	49762
733.839	49655
733.997	49701
734.154	49650
734.311	49820
734.468	49862
734.625	49812
734.782	49990
734.939	49774
735.096	49822
735.253	49688
735.41	49770
735.567	49687
735.724	49795
735.881	49722
736.038	49500
736.194	49606
736.351	49508
736.508	49525
736.665	49498
736.821	49530
736.978	49583
737.134	49534
737.291	49587
737.447	49656
737.604	49567
737.76	49809
737.917	49883
738.073	50043
738.229	49886
738.386	49955
738.542	49941
738.698	49916
738.854	49866
739.01	49975
739.167	49861
739.323	49896
739.479	50018
739.635	49810
739.791	49599
739.947	49746
740.103	49429
740.259	49516
740.414	49612
740.57	49659
740.726	49823
740.882	49694
741.038	49807
741.193	49588
741.349	49688
741.505	49676
741.66	49827
741.816	49831
741.971	49895
742.127	50179
742.282	49977
742.438	49920
742.593	49949
742.748	49812
742.904	49906
743.059	49770
743.214	49906
743.37	49804
743.525	49690
743.68	49737
743.835	49590
743.99	49926
744.145	49762
744.3	49993
744.455	49822
744.61	49783
744.765	49604
744.92	49592
745.075	49812
745.23	49878
745.384	49719
745.539	49918
745.694	49769
745.849	49764
746.003	49974
746.158	49827
746.313	49815
746.467	49920
746.622	49944
746.776	49929
746.931	50212
747.085	50333
747.239	50003
747.394	50156
747.548	50214
747.702	50140
747.857	50233
748.011	50235
748.165	49999
748.319	49954
748.473	49955
748.627	49966
748.781	49754
748.935	49909
749.089	49689
749.243	49718
749.397	49667
749.551	49670
749.705	49841
749.859	49756
750.013	49843
750.166	49858
750.32	49991
750.474	50121
750.628	50045
750.781	50095
750.935	50230
751.088	50030
751.242	49989
751.395	49772
751.549	49969
751.702	49849
751.856	49912
752.009	49746
752.162	49832
752.316	49542
752.469	49709
752.622	49690
752.775	49665
752.928	49683
753.082	49506
753.235	49406
753.388	49501
753.541	49536
753.694	49565
753.847	49506
754	49531
754.152	49600
754.305	49622
754.458	49743
754.611	49529
754.764	49670
754.916	49583
755.069	49719
755.222	49629
755.374	49798
755.527	49865
755.68	49806
755.832	49868
755.985	49892
756.137	49795
756.289	49957
756.442	49817
756.594	49748
756.746	49844
756.899	49829
757.051	49653
757.203	49702
757.355	49742
757.508	49603
757.66	49575
757.812	49392
757.964	49389
758.116	49310
758.268	49500
758.42	49413
758.572	49488
758.724	49504
758.875	49614
759.027	49537
759.179	49510
759.331	49594
759.482	49596
759.634	49434
759.786	49514
759.937	49202
760.089	49275
760.241	49364
760.392	49524
760.544	49470
760.695	49393
760.846	49465
760.998	49469
761.149	49417
761.3	49363
761.452	49393
761.603	49239
761.754	49205
761.905	49277
762.057	49135
762.208	48979
762.359	49146
762.51	49199
762.661	49196
762.812	49152
762.963	49297
763.114	49112
763.265	49199
763.415	49024
763.566	48961
763.717	48963
763.868	48953
764.018	48892
764.169	48982
764.32	49011
764.47	49143
764.621	49192
764.772	49336
764.922	49109
765.072	49054
765.223	49106
765.373	49177
765.524	49044
765.674	49280
765.824	49333
765.975	49137
766.125	49059
766.275	49087
766.425	48890
766.575	48730
766.726	48902
766.876	48895
767.026	48751
767.176	48491
767.326	48846
767.476	48733
767.625	48450
767.775	48600
767.925	48718
768.075	48782
768.225	48928
768.375	48816
768.524	49002
768.674	48908
768.824	48935
768.973	48890
769.123	48675
769.272	48628
769.422	48770
769.571	48708
769.721	48748
769.87	48787
770.019	48708
770.169	48642
770.318	48845
770.467	48671
770.617	48739
770.766	48726
770.915	48710
771.064	48539
771.213	48519
771.362	48495
771.511	48325
771.66	48449
771.809	48482
771.958	48239
772.107	48164
772.256	48282
772.405	48252
772.554	48220
772.702	48210
772.851	48348
773	48252
773.149	48288
773.297	48150
773.446	47963
773.594	48283
773.743	48170
773.891	48168
774.04	48173
774.188	48260
774.337	48245
774.485	48333
774.633	48191
774.782	48308
774.93	48365
775.078	48320
775.226	48193
775.375	48128
775.523	48209
775.671	48035
775.819	48037
775.967	47872
776.115	47963
776.263	47978
776.411	47952
776.559	47864
776.707	47929
776.854	47796
777.002	47751
777.15	47698
777.298	47707
777.445	47849
777.593	47694
777.741	47609
777.888	47637
778.036	47719
778.183	47714
778.331	47574
778.478	47537
778.626	47806
778.773	47665
778.92	47760
779.068	47882
779.215	47939
779.362	47688
779.51	47655
779.657	47715
779.804	47772
779.951	47677
780.098	47596
780.245	47571
780.392	47581
780.539	47438
780.686	47340
780.833	47425
780.98	47384
781.127	47299
781.274	47235
781.42	47200
781.567	47214
781.714	47267
781.861	47303
782.007	47212
782.154	47140
782.3	47228
782.447	46922
782.594	47104
782.74	46988
782.887	47055
783.033	47163
783.179	47147
783.326	47288
783.472	47280
783.618	47072
783.765	47103
783.911	47140
784.057	47076
784.203	47089
784.349	47086
784.495	46912
784.641	46900
784.787	46986
784.933	46585
785.079	46777
785.225	46703
785.371	46636
785.517	46585
785.663	46413
785.809	46506
785.954	46413
786.1	46494
786.246	46461
786.391	46508
786.537	46684
786.683	46595
786.828	46500
786.974	46527
787.119	46405
787.265	46473
787.41	46580
787.555	46462
787.701	46396
787.846	46460
787.991	46446
788.137	46482
788.282	46380
788.427	46465
788.572	46291
788.717	46270
788.862	46228
789.007	46040
789.152	46032
789.297	46142
789.442	45952
789.587	45995
789.732	45841
789.877	45975
790.022	46093
790.166	46010
790.311	46166
790.456	46069
790.601	45741
790.745	45608
790.89	45604
791.034	45620
791.179	45717
791.323	45725
791.468	45860
791.612	45809
791.757	46023
791.901	45929
792.045	45777
792.19	45903
792.334	45775
792.478	45585
792.622	45544
792.767	45295
792.911	45362
793.055	45297
793.199	45403
793.343	45487
793.487	45800
793.631	45506
793.775	45307
793.919	45355
794.063	45037
794.206	44732
794.35	44435
794.494	44540
794.638	44245
794.781	44099
794.925	43731
795.069	43279
795.212	42809
795.356	42524
795.499	42237
795.643	41756
795.786	41674
795.93	41243
796.073	40783
796.217	40060
796.36	1705
796.503	1685
796.646	1678
796.79	1684
