Data from QEP013861_11-01-59-703.txt Node
Date: Tue May 21 11:01:59 EDT 2019
User: Andrew
Spectrometer: QEP01386
Trigger mode: 4
Integration Time (sec): 3.350000E-1
Scans to average: 1
Electric dark correction enabled: false
Nonlinearity correction enabled: false
Boxcar width: 0
XAxis mode: Wavelengths
Number of Pixels in Spectrum: 1044
>>>>>Begin Spectral Data<<<<<
629.243	1696
629.421	1685
629.599	1683
629.777	1681
629.955	43079
630.132	43294
630.31	43488
630.488	43715
630.666	43875
630.843	44174
631.021	44178
631.199	44546
631.376	44830
631.554	44924
631.731	45021
631.909	45285
632.086	45558
632.264	45758
632.441	46025
632.618	46034
632.796	46196
632.973	46624
633.15	46731
633.327	46978
633.504	47068
633.682	47271
633.859	47519
634.036	47590
634.213	47893
634.39	48013
634.567	48328
634.744	48403
634.921	48668
635.098	48907
635.274	49045
635.451	49366
635.628	49542
635.805	49729
635.982	49829
636.158	50184
636.335	50262
636.511	50567
636.688	50764
636.865	50985
637.041	51183
637.218	51361
637.394	51580
637.571	51820
637.747	52166
637.923	52248
638.1	52407
638.276	52627
638.452	52940
638.628	52984
638.805	53153
638.981	53170
639.157	53542
639.333	53788
639.509	54015
639.685	54241
639.861	54414
640.037	54508
640.213	54665
640.389	54968
640.565	55003
640.74	55311
640.916	55477
641.092	55606
641.268	56046
641.443	56028
641.619	56215
641.795	56514
641.97	56677
642.146	56791
642.321	57127
642.497	56960
642.672	57397
642.848	57421
643.023	57771
643.199	57934
643.374	57953
643.549	58176
643.724	58382
643.9	58521
644.075	58777
644.25	59146
644.425	59110
644.6	59483
644.775	59474
644.95	59682
645.125	59711
645.3	60007
645.475	60239
645.65	60360
645.825	60462
646	60658
646.175	60914
646.349	61044
646.524	61143
646.699	61445
646.874	61556
647.048	61864
647.223	61844
647.397	62167
647.572	62299
647.746	62306
647.921	62541
648.095	62687
648.27	62662
648.444	63076
648.618	63228
648.793	63446
648.967	63313
649.141	63558
649.315	63702
649.49	63953
649.664	64082
649.838	64212
650.012	64383
650.186	64284
650.36	64801
650.534	64886
650.708	65165
650.882	65050
651.056	65111
651.23	65284
651.403	65521
651.577	65667
651.751	65847
651.925	66076
652.098	66219
652.272	66198
652.446	66351
652.619	66379
652.793	66559
652.966	66738
653.14	67115
653.313	67127
653.487	67525
653.66	67271
653.833	67500
654.007	67664
654.18	67765
654.353	68101
654.526	68211
654.7	68501
654.873	68493
655.046	68499
655.219	68815
655.392	68932
655.565	69086
655.738	69023
655.911	69047
656.084	69462
656.257	69500
656.43	69745
656.602	69745
656.775	69953
656.948	70053
657.121	70218
657.293	70474
657.466	70405
657.639	70383
657.811	70778
657.984	71037
658.156	71084
658.329	71179
658.501	71219
658.674	71191
658.846	71421
659.018	71696
659.191	71780
659.363	71682
659.535	72069
659.707	72144
659.88	72078
660.052	72363
660.224	72431
660.396	72630
660.568	72736
660.74	72985
660.912	73030
661.084	73157
661.256	73152
661.428	73339
661.6	73325
661.771	73383
661.943	73649
662.115	73691
662.287	74084
662.458	73772
662.63	74202
662.802	74383
662.973	74494
663.145	74656
663.316	74669
663.488	74818
663.659	74670
663.831	74927
664.002	75151
664.174	75129
664.345	75166
664.516	75441
664.687	75540
664.859	75797
665.03	75600
665.201	75915
665.372	75900
665.543	76221
665.714	76246
665.885	76368
666.056	76466
666.227	76522
666.398	76623
666.569	76659
666.74	76765
666.911	76839
667.082	77265
667.252	77287
667.423	77215
667.594	77526
667.764	77543
667.935	77669
668.106	77530
668.276	77907
668.447	77885
668.617	77975
668.788	78310
668.958	78401
669.129	78549
669.299	78346
669.469	78683
669.64	78829
669.81	78822
669.98	79222
670.15	79059
670.321	78956
670.491	79255
670.661	79160
670.831	79305
671.001	79365
671.171	79479
671.341	79631
671.511	79727
671.681	79771
671.851	79952
672.02	80162
672.19	80183
672.36	80367
672.53	80127
672.699	80657
672.869	80651
673.039	80693
673.208	80710
673.378	80746
673.547	80901
673.717	81101
673.886	81115
674.056	81380
674.225	81542
674.395	81602
674.564	81751
674.733	81742
674.903	81882
675.072	82048
675.241	82088
675.41	82008
675.579	82283
675.748	82411
675.917	82234
676.087	82383
676.256	82545
676.425	82717
676.593	82797
676.762	82898
676.931	83081
677.1	83102
677.269	83188
677.438	83377
677.606	83254
677.775	83309
677.944	83695
678.112	83806
678.281	83648
678.45	83655
678.618	83909
678.787	84089
678.955	84064
679.124	84289
679.292	84144
679.46	84406
679.629	84484
679.797	84762
679.965	85004
680.134	84884
680.302	84927
680.47	84914
680.638	84940
680.806	85309
680.974	85212
681.142	85394
681.31	85291
681.478	85329
681.646	85588
681.814	85674
681.982	85720
682.15	86105
682.318	86267
682.486	86159
682.653	86065
682.821	86321
682.989	86390
683.156	86494
683.324	86631
683.492	86539
683.659	86603
683.827	86672
683.994	86765
684.162	87067
684.329	87212
684.496	87206
684.664	87249
684.831	87346
684.998	87540
685.166	87576
685.333	87814
685.5	87953
685.667	87683
685.834	87600
686.001	87924
686.168	88148
686.335	88096
686.502	88134
686.669	88155
686.836	88189
687.003	88452
687.17	88469
687.337	88453
687.504	88740
687.67	88774
687.837	88728
688.004	88814
688.17	88817
688.337	88963
688.504	89317
688.67	89300
688.837	89373
689.003	89457
689.17	89846
689.336	89900
689.502	89992
689.669	90045
689.835	89962
690.001	89971
690.168	89995
690.334	90028
690.5	90046
690.666	90244
690.832	90617
690.998	90397
691.164	90739
691.33	90892
691.496	91118
691.662	91164
691.828	91229
691.994	91154
692.16	91220
692.326	91298
692.492	91345
692.657	91559
692.823	91583
692.989	91421
693.155	91616
693.32	91634
693.486	91717
693.651	91843
693.817	91990
693.982	92206
694.148	92232
694.313	92221
694.479	92498
694.644	92581
694.809	92612
694.975	92488
695.14	92606
695.305	92561
695.47	92539
695.635	92655
695.801	92736
695.966	92804
696.131	92870
696.296	93047
696.461	93165
696.626	93266
696.791	93398
696.955	93613
697.12	93692
697.285	93558
697.45	93715
697.615	93844
697.779	94055
697.944	94277
698.109	94288
698.273	93875
698.438	94204
698.603	94047
698.767	93873
698.932	94107
699.096	94232
699.26	94374
699.425	94320
699.589	94592
699.754	94723
699.918	94795
700.082	94912
700.246	95069
700.411	95143
700.575	95181
700.739	95393
700.903	95249
701.067	95591
701.231	95261
701.395	95446
701.559	95319
701.723	95579
701.887	95401
702.051	95628
702.214	95735
702.378	95805
702.542	95793
702.706	95840
702.869	95856
703.033	96079
703.197	96199
703.36	96461
703.524	96757
703.687	96578
703.851	96736
704.014	96830
704.178	96847
704.341	96933
704.505	96925
704.668	96869
704.831	96865
704.994	96882
705.158	96805
705.321	96711
705.484	96819
705.647	97035
705.81	97330
705.973	96975
706.136	97148
706.299	97500
706.462	97335
706.625	97637
706.788	97754
706.951	98078
707.114	97882
707.277	98025
707.439	98263
707.602	98324
707.765	98335
707.928	98403
708.09	98225
708.253	98500
708.415	98291
708.578	98416
708.74	98371
708.903	98253
709.065	98129
709.228	98586
709.39	98452
709.552	98528
709.715	98644
709.877	98903
710.039	99149
710.201	99261
710.364	99306
710.526	99271
710.688	99533
710.85	99775
711.012	99715
711.174	99738
711.336	99756
711.498	99612
711.66	99540
711.822	99535
711.983	99430
712.145	99621
712.307	99900
712.469	99924
712.63	99705
712.792	99829
712.954	100034
713.115	100162
713.277	100535
713.438	100453
713.6	100451
713.761	100609
713.923	100828
714.084	100419
714.245	100528
714.407	100853
714.568	100580
714.729	100795
714.891	100726
715.052	100531
715.213	100783
715.374	100705
715.535	100785
715.696	100964
715.857	101025
716.018	101232
716.179	101089
716.34	101077
716.501	101262
716.662	101477
716.823	101660
716.984	101711
717.144	101702
717.305	101962
717.466	101767
717.626	101713
717.787	101801
717.948	101591
718.108	101834
718.269	101564
718.429	101654
718.59	101642
718.75	101568
718.911	101676
719.071	101882
719.231	102117
719.392	102269
719.552	102252
719.712	102450
719.872	102321
720.033	102242
720.193	102380
720.353	102583
720.513	102331
720.673	102568
720.833	102236
720.993	102479
721.153	102396
721.313	102565
721.473	102478
721.632	102531
721.792	102600
721.952	102750
722.112	102792
722.271	102972
722.431	102998
722.591	103214
722.75	103485
722.91	103479
723.069	103510
723.229	103342
723.388	103464
723.548	103646
723.707	103649
723.867	103689
724.026	103409
724.185	103728
724.344	103222
724.504	103426
724.663	103306
724.822	103500
724.981	103508
725.14	103245
725.299	103717
725.458	103545
725.617	103522
725.776	103516
725.935	103897
726.094	103734
726.253	104282
726.412	104318
726.571	104385
726.729	104350
726.888	104355
727.047	104423
727.206	104431
727.364	104359
727.523	104372
727.681	104514
727.84	104512
727.998	104438
728.157	104182
728.315	104470
728.474	104263
728.632	104215
728.79	104288
728.949	103999
729.107	104138
729.265	104247
729.423	104125
729.582	104354
729.74	104275
729.898	104686
730.056	104544
730.214	104699
730.372	104799
730.53	104950
730.688	105016
730.846	104986
731.004	104998
731.161	105192
731.319	105143
731.477	105248
731.635	104865
731.792	104883
731.95	105017
732.108	104816
732.265	104786
732.423	104749
732.58	104520
732.738	104729
732.895	104739
733.053	105111
733.21	105092
733.368	105265
733.525	105324
733.682	105433
733.839	105621
733.997	105449
734.154	105542
734.311	105630
734.468	105702
734.625	105845
734.782	105758
734.939	105764
735.096	105703
735.253	105730
735.41	105457
735.567	105499
735.724	105651
735.881	105278
736.038	105261
736.194	105243
736.351	105188
736.508	105208
736.665	105246
736.821	105150
736.978	105298
737.134	105313
737.291	105514
737.447	105453
737.604	105529
737.76	105605
737.917	105779
738.073	105989
738.229	106382
738.386	106284
738.542	106262
738.698	106157
738.854	105996
739.01	106010
739.167	106106
739.323	105938
739.479	105906
739.635	105525
739.791	105381
739.947	105368
740.103	105437
740.259	105282
740.414	105302
740.57	105332
740.726	105524
740.882	105465
741.038	105453
741.193	105328
741.349	105658
741.505	105724
741.66	105834
741.816	105907
741.971	105855
742.127	106116
742.282	106065
742.438	106308
742.593	105930
742.748	105991
742.904	105738
743.059	105706
743.214	105806
743.37	105430
743.525	105442
743.68	105490
743.835	105337
743.99	105410
744.145	105692
744.3	105944
744.455	105945
744.61	105773
744.765	105547
744.92	105467
745.075	105442
745.23	105361
745.384	105871
745.539	105622
745.694	105626
745.849	105924
746.003	105734
746.158	105765
746.313	105941
746.467	105735
746.622	106007
746.776	106353
746.931	106144
747.085	106443
747.239	106335
747.394	106302
747.548	106220
747.702	106265
747.857	106101
748.011	106372
748.165	106200
748.319	106037
748.473	106036
748.627	105825
748.781	105515
748.935	105430
749.089	105256
749.243	105542
749.397	105401
749.551	105679
749.705	105647
749.859	105480
750.013	105768
750.166	105882
750.32	105879
750.474	105901
750.628	106299
750.781	106244
750.935	106265
751.088	106039
751.242	106104
751.395	106115
751.549	106079
751.702	105870
751.856	106026
752.009	105872
752.162	105740
752.316	105654
752.469	105434
752.622	105337
752.775	105263
752.928	105390
753.082	105309
753.235	105398
753.388	105055
753.541	105261
753.694	105212
753.847	105278
754	105220
754.152	105324
754.305	105145
754.458	105308
754.611	105307
754.764	105574
754.916	105377
755.069	105494
755.222	105599
755.374	105586
755.527	105753
755.68	105988
755.832	105986
755.985	106050
756.137	105810
756.289	105800
756.442	105990
756.594	105942
756.746	105804
756.899	105727
757.051	105487
757.203	105392
757.355	105458
757.508	105099
757.66	104892
757.812	104736
757.964	104825
758.116	105127
758.268	105038
758.42	104825
758.572	104862
758.724	104928
758.875	105053
759.027	104919
759.179	105425
759.331	105276
759.482	105259
759.634	104831
759.786	105030
759.937	104558
760.089	104706
760.241	104641
760.392	104587
760.544	104793
760.695	104664
760.846	104924
760.998	104875
761.149	105169
761.3	104968
761.452	104680
761.603	104825
761.754	104566
761.905	104480
762.057	104406
762.208	104291
762.359	104214
762.51	104361
762.661	104198
762.812	104194
762.963	104387
763.114	104184
763.265	104190
763.415	103982
763.566	103839
763.717	104007
763.868	103809
764.018	103889
764.169	103995
764.32	103843
764.47	104065
764.621	104418
764.772	104413
764.922	104354
765.072	104401
765.223	104580
765.373	104260
765.524	104280
765.674	104449
765.824	104572
765.975	104423
766.125	104254
766.275	104061
766.425	103704
766.575	103969
766.726	103569
766.876	103607
767.026	103337
767.176	103376
767.326	103334
767.476	103206
767.625	103087
767.775	103091
767.925	103385
768.075	103388
768.225	103509
768.375	103727
768.524	103748
768.674	103655
768.824	103737
768.973	103548
769.123	103491
769.272	103338
769.422	103301
769.571	103320
769.721	103520
769.87	103329
770.019	103476
770.169	103467
770.318	103588
770.467	103408
770.617	103401
770.766	103331
770.915	103126
771.064	103095
771.213	102881
771.362	102793
771.511	102710
771.66	102806
771.809	102637
771.958	102291
772.107	102516
772.256	102247
772.405	102653
772.554	102497
772.702	102503
772.851	102621
773	102452
773.149	102141
773.297	102220
773.446	102150
773.594	102310
773.743	102391
773.891	102396
774.04	102380
774.188	102342
774.337	102308
774.485	102289
774.633	102459
774.782	102374
774.93	102486
775.078	102680
775.226	102771
775.375	102452
775.523	102346
775.671	102112
775.819	101903
775.967	101587
776.115	101728
776.263	101725
776.411	102039
776.559	101377
776.707	101595
776.854	101285
777.002	101214
777.15	101140
777.298	101392
777.445	101165
777.593	101035
777.741	100949
777.888	101282
778.036	101037
778.183	101096
778.331	101059
778.478	101052
778.626	101357
778.773	101259
778.92	101550
779.068	101313
779.215	101846
779.362	101332
779.51	101463
779.657	101284
779.804	101279
779.951	100974
780.098	101139
780.245	100998
780.392	100905
780.539	100748
780.686	100510
780.833	100408
780.98	100131
781.127	100273
781.274	100048
781.42	100165
781.567	100028
781.714	100254
781.861	99933
782.007	100123
782.154	100031
782.3	99954
782.447	99863
782.594	99848
782.74	99785
782.887	99974
783.033	99984
783.179	100198
783.326	100181
783.472	99994
783.618	99926
783.765	100007
783.911	99846
784.057	99866
784.203	99998
784.349	99648
784.495	99665
784.641	99600
784.787	99637
784.933	99373
785.079	99340
785.225	99115
785.371	98855
785.517	98866
785.663	98681
785.809	98549
785.954	98555
786.1	98734
786.246	98795
786.391	98817
786.537	98876
786.683	98769
786.828	98911
786.974	98536
787.119	98863
787.265	98657
787.41	98670
787.555	98725
787.701	98349
787.846	98552
787.991	98698
788.137	98540
788.282	98704
788.427	98511
788.572	98211
788.717	98212
788.862	97752
789.007	97930
789.152	97965
789.297	97523
789.442	97741
789.587	97620
789.732	97488
789.877	97637
790.022	97661
790.166	97799
790.311	97607
790.456	97356
790.601	97185
790.745	96651
790.89	96689
791.034	96727
791.179	96884
791.323	97100
791.468	97179
791.612	97391
791.757	97384
791.901	97257
792.045	97123
792.19	97294
792.334	97046
792.478	96871
792.622	96514
792.767	96119
792.911	96105
793.055	96192
793.199	96327
793.343	96280
793.487	96488
793.631	96726
793.775	96596
793.919	96223
794.063	95450
794.206	94698
794.35	94276
794.494	94300
794.638	94013
794.781	93544
794.925	92950
795.069	91800
795.212	90826
795.356	90269
795.499	89110
795.643	88697
795.786	88002
795.93	87132
796.073	86129
796.217	84759
796.36	1711
796.503	1690
796.646	1688
796.79	1685
