Data from QEP013861_11-00-41-447.txt Node
Date: Tue May 21 11:00:41 EDT 2019
User: Andrew
Spectrometer: QEP01386
Trigger mode: 4
Integration Time (sec): 1.550000E-1
Scans to average: 1
Electric dark correction enabled: false
Nonlinearity correction enabled: false
Boxcar width: 0
XAxis mode: Wavelengths
Number of Pixels in Spectrum: 1044
>>>>>Begin Spectral Data<<<<<
629.243	1699
629.421	1686
629.599	1686
629.777	1683
629.955	20687
630.132	20803
630.31	21030
630.488	21047
630.666	21123
630.843	21308
631.021	21378
631.199	21451
631.376	21588
631.554	21537
631.731	21680
631.909	21843
632.086	21976
632.264	22026
632.441	22075
632.618	22187
632.796	22291
632.973	22379
633.15	22553
633.327	22481
633.504	22628
633.682	22750
633.859	22805
634.036	22962
634.213	22936
634.39	23066
634.567	23238
634.744	23255
634.921	23429
635.098	23421
635.274	23429
635.451	23652
635.628	23787
635.805	23813
635.982	23981
636.158	24030
636.335	24175
636.511	24186
636.688	24385
636.865	24424
637.041	24523
637.218	24655
637.394	24818
637.571	24952
637.747	24914
637.923	24991
638.1	25038
638.276	25160
638.452	25352
638.628	25330
638.805	25478
638.981	25531
639.157	25587
639.333	25947
639.509	25858
639.685	26005
639.861	25988
640.037	26104
640.213	26096
640.389	26231
640.565	26323
640.74	26351
640.916	26426
641.092	26544
641.268	26788
641.443	26873
641.619	26910
641.795	26856
641.97	27017
642.146	27139
642.321	27280
642.497	27293
642.672	27340
642.848	27453
643.023	27591
643.199	27600
643.374	27641
643.549	27686
643.724	27789
643.9	27961
644.075	28099
644.25	28042
644.425	28130
644.6	28243
644.775	28275
644.95	28431
645.125	28556
645.3	28521
645.475	28712
645.65	28895
645.825	28892
646	28911
646.175	28937
646.349	28961
646.524	29177
646.699	29215
646.874	29249
647.048	29278
647.223	29357
647.397	29583
647.572	29615
647.746	29571
647.921	29788
648.095	29908
648.27	29859
648.444	30073
648.618	30134
648.793	30217
648.967	30276
649.141	30267
649.315	30368
649.49	30436
649.664	30554
649.838	30431
650.012	30604
650.186	30688
650.36	30758
650.534	30765
650.708	30860
650.882	30882
651.056	30999
651.23	31041
651.403	31210
651.577	31219
651.751	31322
651.925	31346
652.098	31457
652.272	31530
652.446	31555
652.619	31510
652.793	31642
652.966	31821
653.14	31959
653.313	31782
653.487	31972
653.66	32040
653.833	32060
654.007	32150
654.18	32295
654.353	32238
654.526	32363
654.7	32290
654.873	32502
655.046	32513
655.219	32581
655.392	32854
655.565	32815
655.738	32812
655.911	32866
656.084	32929
656.257	32959
656.43	33078
656.602	33079
656.775	33209
656.948	33159
657.121	33388
657.293	33380
657.466	33448
657.639	33408
657.811	33583
657.984	33576
658.156	33636
658.329	33671
658.501	33796
658.674	33803
658.846	33890
659.018	33872
659.191	33965
659.363	34013
659.535	34160
659.707	34266
659.88	34291
660.052	34324
660.224	34267
660.396	34454
660.568	34519
660.74	34534
660.912	34601
661.084	34720
661.256	34751
661.428	34772
661.6	34753
661.771	34926
661.943	34990
662.115	35082
662.287	35141
662.458	35175
662.63	35178
662.802	35231
662.973	35243
663.145	35283
663.316	35285
663.488	35308
663.659	35351
663.831	35525
664.002	35605
664.174	35569
664.345	35588
664.516	35787
664.687	35802
664.859	35736
665.03	35883
665.201	35848
665.372	35919
665.543	36045
665.714	36125
665.885	36176
666.056	36220
666.227	36311
666.398	36234
666.569	36380
666.74	36422
666.911	36526
667.082	36606
667.252	36610
667.423	36712
667.594	36509
667.764	36606
667.935	36753
668.106	36755
668.276	36894
668.447	36819
668.617	36861
668.788	37022
668.958	37144
669.129	37017
669.299	37144
669.469	37196
669.64	37320
669.81	37415
669.98	37400
670.15	37465
670.321	37493
670.491	37381
670.661	37530
670.831	37408
671.001	37610
671.171	37646
671.341	37771
671.511	37493
671.681	37763
671.851	37987
672.02	37892
672.19	38067
672.36	37955
672.53	38000
672.699	38092
672.869	38164
673.039	38109
673.208	38349
673.378	38197
673.547	38204
673.717	38473
673.886	38320
674.056	38438
674.225	38530
674.395	38487
674.564	38696
674.733	38635
674.903	38752
675.072	38847
675.241	38676
675.41	38855
675.579	38821
675.748	38850
675.917	39105
676.087	39103
676.256	39051
676.425	39038
676.593	39204
676.762	39134
676.931	39295
677.1	39326
677.269	39281
677.438	39301
677.606	39332
677.775	39426
677.944	39496
678.112	39589
678.281	39628
678.45	39413
678.618	39581
678.787	39580
678.955	39751
679.124	39839
679.292	39929
679.46	39813
679.629	39985
679.797	39931
679.965	40054
680.134	40148
680.302	40112
680.47	40231
680.638	40023
680.806	40195
680.974	40382
681.142	40280
681.31	40370
681.478	40242
681.646	40549
681.814	40505
681.982	40542
682.15	40674
682.318	40681
682.486	40728
682.653	40728
682.821	40664
682.989	40740
683.156	40865
683.324	40934
683.492	40766
683.659	40982
683.827	40893
683.994	40983
684.162	41146
684.329	41051
684.496	41091
684.664	41182
684.831	41147
684.998	41292
685.166	41510
685.333	41376
685.5	41440
685.667	41552
685.834	41489
686.001	41513
686.168	41491
686.335	41649
686.502	41628
686.669	41712
686.836	41752
687.003	41876
687.17	41831
687.337	41875
687.504	41858
687.67	41947
687.837	41918
688.004	41912
688.17	41952
688.337	42126
688.504	41934
688.67	42159
688.837	42285
689.003	42171
689.17	42266
689.336	42451
689.502	42376
689.669	42482
689.835	42511
690.001	42501
690.168	42557
690.334	42510
690.5	42646
690.666	42649
690.832	42662
690.998	42844
691.164	42660
691.33	42854
691.496	42997
691.662	42976
691.828	42953
691.994	43034
692.16	43084
692.326	43156
692.492	43203
692.657	43090
692.823	43263
692.989	43230
693.155	43226
693.32	43172
693.486	43230
693.651	43328
693.817	43470
693.982	43438
694.148	43456
694.313	43661
694.479	43630
694.644	43639
694.809	43685
694.975	43640
695.14	43635
695.305	43668
695.47	43718
695.635	43544
695.801	43713
695.966	43631
696.131	43761
696.296	43807
696.461	43887
696.626	43879
696.791	44151
696.955	44267
697.12	44238
697.285	44192
697.45	44375
697.615	44264
697.779	44336
697.944	44455
698.109	44452
698.273	44449
698.438	44432
698.603	44372
698.767	44408
698.932	44399
699.096	44501
699.26	44678
699.425	44548
699.589	44629
699.754	44748
699.918	44771
700.082	44732
700.246	44898
700.411	44854
700.575	44864
700.739	45062
700.903	44994
701.067	45061
701.231	45078
701.395	44936
701.559	44968
701.723	45046
701.887	45058
702.051	45083
702.214	45105
702.378	45019
702.542	45098
702.706	45304
702.869	45340
703.033	45431
703.197	45304
703.36	45415
703.524	45540
703.687	45507
703.851	45596
704.014	45568
704.178	45729
704.341	45640
704.505	45782
704.668	45718
704.831	45666
704.994	45787
705.158	45674
705.321	45722
705.484	45563
705.647	45869
705.81	45799
705.973	45933
706.136	45786
706.299	45809
706.462	45889
706.625	46042
706.788	46110
706.951	46079
707.114	46231
707.277	46296
707.439	46281
707.602	46487
707.765	46481
707.928	46344
708.09	46404
708.253	46480
708.415	46239
708.578	46193
708.74	46305
708.903	46417
709.065	46322
709.228	46465
709.39	46548
709.552	46481
709.715	46533
709.877	46704
710.039	46712
710.201	46915
710.364	46685
710.526	46940
710.688	46891
710.85	46989
711.012	46877
711.174	47044
711.336	47129
711.498	46926
711.66	47070
711.822	46823
711.983	46829
712.145	46915
712.307	47088
712.469	47015
712.63	47041
712.792	47092
712.954	47148
713.115	47241
713.277	47384
713.438	47281
713.6	47328
713.761	47397
713.923	47339
714.084	47452
714.245	47256
714.407	47387
714.568	47452
714.729	47515
714.891	47494
715.052	47401
715.213	47513
715.374	47578
715.535	47553
715.696	47596
715.857	47736
716.018	47601
716.179	47633
716.34	47644
716.501	47739
716.662	47707
716.823	48042
716.984	47929
717.144	48097
717.305	48005
717.466	48063
717.626	47926
717.787	48113
717.948	47928
718.108	47968
718.269	47975
718.429	47921
718.59	47770
718.75	47925
718.911	48083
719.071	47998
719.231	48104
719.392	48091
719.552	48303
719.712	48300
719.872	48320
720.033	48196
720.193	48171
720.353	48337
720.513	48285
720.673	48195
720.833	48337
720.993	48298
721.153	48042
721.313	48356
721.473	48279
721.632	48198
721.792	48336
721.952	48370
722.112	48331
722.271	48509
722.431	48416
722.591	48567
722.75	48717
722.91	48883
723.069	48753
723.229	48655
723.388	48833
723.548	48992
723.707	48876
723.867	48912
724.026	48718
724.185	48830
724.344	48675
724.504	48692
724.663	48592
724.822	48561
724.981	48817
725.14	48601
725.299	48729
725.458	48686
725.617	48694
725.776	48967
725.935	49010
726.094	49060
726.253	48967
726.412	49099
726.571	49102
726.729	49051
726.888	49156
727.047	49198
727.206	49324
727.364	49298
727.523	49243
727.681	49105
727.84	49149
727.998	49131
728.157	49097
728.315	49016
728.474	49155
728.632	49022
728.79	49182
728.949	49162
729.107	48941
729.265	49218
729.423	48971
729.582	49091
729.74	49271
729.898	49304
730.056	49431
730.214	49342
730.372	49321
730.53	49418
730.688	49444
730.846	49414
731.004	49490
731.161	49663
731.319	49554
731.477	49412
731.635	49457
731.792	49443
731.95	49443
732.108	49466
732.265	49451
732.423	49411
732.58	49348
732.738	49418
732.895	49471
733.053	49473
733.21	49564
733.368	49545
733.525	49661
733.682	49699
733.839	49575
733.997	49834
734.154	49838
734.311	49918
734.468	49996
734.625	49838
734.782	49691
734.939	49714
735.096	49671
735.253	49849
735.41	49755
735.567	49820
735.724	49776
735.881	49626
736.038	49555
736.194	49700
736.351	49411
736.508	49429
736.665	49603
736.821	49605
736.978	49388
737.134	49466
737.291	49635
737.447	49565
737.604	49628
737.76	49608
737.917	50029
738.073	49860
738.229	49963
738.386	49944
738.542	49989
738.698	49948
738.854	50019
739.01	49973
739.167	49826
739.323	49836
739.479	49923
739.635	49838
739.791	49660
739.947	49759
740.103	49540
740.259	49589
740.414	49609
740.57	49546
740.726	49679
740.882	49742
741.038	49704
741.193	49630
741.349	49798
741.505	49914
741.66	49838
741.816	49957
741.971	50040
742.127	49940
742.282	49933
742.438	50047
742.593	49790
742.748	49902
742.904	50036
743.059	49808
743.214	49931
743.37	49660
743.525	49830
743.68	49639
743.835	49774
743.99	49702
744.145	49836
744.3	49827
744.455	49844
744.61	49881
744.765	49772
744.92	49844
745.075	49755
745.23	49692
745.384	49888
745.539	49900
745.694	49899
745.849	49653
746.003	49909
746.158	49886
746.313	49817
746.467	49744
746.622	49799
746.776	49918
746.931	50104
747.085	50090
747.239	49933
747.394	50152
747.548	50303
747.702	50178
747.857	50257
748.011	49877
748.165	50086
748.319	50066
748.473	49849
748.627	49744
748.781	49665
748.935	49785
749.089	49691
749.243	49635
749.397	49795
749.551	49840
749.705	49760
749.859	49881
750.013	49766
750.166	49967
750.32	49834
750.474	49886
750.628	50069
750.781	50067
750.935	50041
751.088	49975
751.242	50121
751.395	50018
751.549	49962
751.702	50091
751.856	49964
752.009	49933
752.162	49767
752.316	49764
752.469	49678
752.622	49734
752.775	49843
752.928	49640
753.082	49653
753.235	49657
753.388	49508
753.541	49646
753.694	49629
753.847	49643
754	49489
754.152	49612
754.305	49535
754.458	49705
754.611	49672
754.764	49629
754.916	49702
755.069	49733
755.222	49759
755.374	49666
755.527	49759
755.68	49947
755.832	49854
755.985	49837
756.137	49871
756.289	49875
756.442	49809
756.594	49866
756.746	49769
756.899	49764
757.051	49749
757.203	49636
757.355	49663
757.508	49359
757.66	49579
757.812	49460
757.964	49400
758.116	49421
758.268	49394
758.42	49389
758.572	49432
758.724	49607
758.875	49700
759.027	49583
759.179	49753
759.331	49630
759.482	49535
759.634	49397
759.786	49400
759.937	49226
760.089	49306
760.241	49395
760.392	49357
760.544	49358
760.695	49353
760.846	49241
760.998	49397
761.149	49432
761.3	49401
761.452	49329
761.603	49334
761.754	49361
761.905	49131
762.057	49072
762.208	49082
762.359	49126
762.51	49163
762.661	49070
762.812	49086
762.963	49214
763.114	49076
763.265	49092
763.415	48938
763.566	48957
763.717	48866
763.868	48982
764.018	48922
764.169	49015
764.32	48930
764.47	49023
764.621	49046
764.772	49158
764.922	49054
765.072	49110
765.223	49153
765.373	49249
765.524	49115
765.674	49264
765.824	49271
765.975	49143
766.125	49121
766.275	49021
766.425	48787
766.575	48906
766.726	48857
766.876	48673
767.026	48707
767.176	48906
767.326	48524
767.476	48812
767.625	48648
767.775	48640
767.925	48740
768.075	48722
768.225	48856
768.375	48792
768.524	48772
768.674	48837
768.824	48802
768.973	48769
769.123	48752
769.272	48796
769.422	48786
769.571	48769
769.721	48605
769.87	48617
770.019	48709
770.169	48765
770.318	48574
770.467	48872
770.617	48981
770.766	48712
770.915	48521
771.064	48695
771.213	48489
771.362	48537
771.511	48442
771.66	48387
771.809	48340
771.958	48260
772.107	48150
772.256	48195
772.405	48258
772.554	48352
772.702	48339
772.851	48164
773	48304
773.149	48293
773.297	48313
773.446	48188
773.594	48355
773.743	48155
773.891	48269
774.04	48274
774.188	48102
774.337	48112
774.485	48284
774.633	48218
774.782	48233
774.93	48321
775.078	48375
775.226	48280
775.375	48038
775.523	48146
775.671	47904
775.819	48118
775.967	48092
776.115	47983
776.263	47859
776.411	47904
776.559	47980
776.707	47857
776.854	47785
777.002	47775
777.15	47597
777.298	47518
777.445	47695
777.593	47750
777.741	47568
777.888	47611
778.036	47655
778.183	47575
778.331	47646
778.478	47556
778.626	47652
778.773	47690
778.92	47846
779.068	47891
779.215	47987
779.362	47816
779.51	47748
779.657	47554
779.804	47730
779.951	47698
780.098	47650
780.245	47674
780.392	47472
780.539	47255
780.686	47499
780.833	47398
780.98	47295
781.127	47337
781.274	47149
781.42	47223
781.567	47229
781.714	47232
781.861	47275
782.007	47136
782.154	47097
782.3	47047
782.447	47119
782.594	47072
782.74	47213
782.887	47105
783.033	47214
783.179	47132
783.326	47137
783.472	47204
783.618	47105
783.765	47123
783.911	47189
784.057	46897
784.203	47199
784.349	47239
784.495	46989
784.641	47007
784.787	46945
784.933	46778
785.079	46770
785.225	46774
785.371	46630
785.517	46533
785.663	46570
785.809	46365
785.954	46238
786.1	46436
786.246	46655
786.391	46711
786.537	46636
786.683	46517
786.828	46527
786.974	46424
787.119	46748
787.265	46507
787.41	46503
787.555	46502
787.701	46567
787.846	46389
787.991	46549
788.137	46418
788.282	46476
788.427	46281
788.572	46395
788.717	46189
788.862	46157
789.007	46038
789.152	46113
789.297	46046
789.442	45948
789.587	45921
789.732	45963
789.877	46147
790.022	46010
790.166	46075
790.311	46100
790.456	45907
790.601	45790
790.745	45606
790.89	45552
791.034	45465
791.179	45679
791.323	45771
791.468	45819
791.612	45858
791.757	45900
791.901	45923
792.045	45870
792.19	45963
792.334	45702
792.478	45489
792.622	45342
792.767	45294
792.911	45294
793.055	45355
793.199	45386
793.343	45378
793.487	45485
793.631	45575
793.775	45406
793.919	45348
794.063	45000
794.206	44754
794.35	44612
794.494	44452
794.638	44309
794.781	44080
794.925	43828
795.069	43328
795.212	42980
795.356	42318
795.499	42225
795.643	41771
795.786	41610
795.93	41079
796.073	40622
796.217	39997
796.36	1706
796.503	1687
796.646	1686
796.79	1685
