Data from QEP013861_14-42-18-128.txt Node
Date: Tue Jul 09 14:42:18 EDT 2019
User: xiyang
Spectrometer: QEP01386
Trigger mode: 4
Integration Time (sec): 2.000000E-1
Scans to average: 1
Electric dark correction enabled: false
Nonlinearity correction enabled: false
Boxcar width: 0
XAxis mode: Wavelengths
Number of Pixels in Spectrum: 1044
>>>>>Begin Spectral Data<<<<<
629.243	1701
629.421	1689
629.599	1690
629.777	1686
629.955	71168
630.132	71638
630.31	73092
630.488	75254
630.666	75336
630.843	75555
631.021	74712
631.199	74544
631.376	73682
631.554	72934
631.731	73536
631.909	74573
632.086	76554
632.264	77279
632.441	78448
632.618	79036
632.796	78956
632.973	78961
633.15	78896
633.327	78540
633.504	77897
633.682	78026
633.859	79393
634.036	80233
634.213	80298
634.39	80328
634.567	81454
634.744	82000
634.921	83082
635.098	82858
635.274	83027
635.451	82430
635.628	82542
635.805	82071
635.982	81851
636.158	82462
636.335	83465
636.511	84770
636.688	85705
636.865	85934
637.041	86218
637.218	86963
637.394	87771
637.571	87644
637.747	87676
637.923	87827
638.1	87985
638.276	88572
638.452	89016
638.628	89925
638.805	89684
638.981	89074
639.157	88495
639.333	88147
639.509	89265
639.685	88939
639.861	88398
640.037	87859
640.213	90677
640.389	91140
640.565	90212
640.74	88963
640.916	89526
641.092	90322
641.268	90855
641.443	91684
641.619	91641
641.795	91465
641.97	91325
642.146	92111
642.321	94274
642.497	94837
642.672	94688
642.848	94183
643.023	93192
643.199	93781
643.374	94837
643.549	94640
643.724	93983
643.9	93421
644.075	95814
644.25	97325
644.425	97247
644.6	95929
644.775	95192
644.95	94166
645.125	95630
645.3	96234
645.475	95368
645.65	95028
645.825	95815
646	94505
646.175	93394
646.349	93905
646.524	96216
646.699	96051
646.874	95079
647.048	94401
647.223	93812
647.397	93740
647.572	93650
647.746	96108
647.921	96120
648.095	94786
648.27	94842
648.444	96259
648.618	98462
648.793	98394
648.967	96678
649.141	92930
649.315	90067
649.49	89836
649.664	93179
649.838	97977
650.012	99909
650.186	102044
650.36	102383
650.534	103016
650.708	103168
650.882	102448
651.056	102035
651.23	99701
651.403	96281
651.577	94236
651.751	96039
651.925	99794
652.098	102277
652.272	102596
652.446	102813
652.619	103461
652.793	103790
652.966	103676
653.14	102444
653.313	102489
653.487	103656
653.66	105055
653.833	105312
654.007	104643
654.18	102858
654.353	101144
654.526	100613
654.7	100669
654.873	101478
655.046	101657
655.219	99823
655.392	98257
655.565	96818
655.738	93694
655.911	86092
656.084	74167
656.257	70674
656.43	82757
656.602	95089
656.775	98563
656.948	99615
657.121	100946
657.293	100994
657.466	102606
657.639	105884
657.811	107225
657.984	107113
658.156	106882
658.329	106961
658.501	106621
658.674	107246
658.846	108788
659.018	107665
659.191	105156
659.363	105208
659.535	107780
659.707	108768
659.88	109213
660.052	110485
660.224	110750
660.396	110363
660.568	110138
660.74	109426
660.912	109797
661.084	111235
661.256	111901
661.428	112106
661.6	112475
661.771	112479
661.943	112713
662.115	113109
662.287	112754
662.458	112549
662.63	112274
662.802	112473
662.973	112455
663.145	110595
663.316	109083
663.488	110365
663.659	112630
663.831	112803
664.002	112770
664.174	111576
664.345	111241
664.516	113015
664.687	114162
664.859	114299
665.03	114873
665.201	114570
665.372	114614
665.543	114468
665.714	114889
665.885	114748
666.056	113257
666.227	111934
666.398	112175
666.569	114004
666.74	114561
666.911	114909
667.082	115516
667.252	115585
667.423	115367
667.594	113336
667.764	112103
667.935	114392
668.106	115932
668.276	116500
668.447	116418
668.617	116481
668.788	116498
668.958	116758
669.129	116724
669.299	116591
669.469	115199
669.64	114926
669.81	115982
669.98	116726
670.15	116583
670.321	115285
670.491	115059
670.661	116513
670.831	116676
671.001	116544
671.171	115732
671.341	115142
671.511	113806
671.681	112801
671.851	114367
672.02	115985
672.19	116403
672.36	116945
672.53	116136
672.699	116769
672.869	117621
673.039	117794
673.208	117226
673.378	117344
673.547	117596
673.717	116932
673.886	117361
674.056	117461
674.225	117133
674.395	117617
674.564	117810
674.733	117355
674.903	115950
675.072	116424
675.241	117296
675.41	117927
675.579	117865
675.748	118389
675.917	118890
676.087	118861
676.256	118951
676.425	118457
676.593	117205
676.762	116783
676.931	117915
677.1	117395
677.269	118110
677.438	119394
677.606	119584
677.775	119730
677.944	119848
678.112	118972
678.281	118124
678.45	117700
678.618	118149
678.787	119116
678.955	119794
679.124	119455
679.292	118925
679.46	118529
679.629	118568
679.797	119014
679.965	119402
680.134	119964
680.302	119143
680.47	119029
680.638	118907
680.806	119237
680.974	118638
681.142	119463
681.31	119295
681.478	119557
681.646	120501
681.814	119906
681.982	119113
682.15	120073
682.318	120863
682.486	120481
682.653	119671
682.821	118100
682.989	119927
683.156	120583
683.324	120665
683.492	120194
683.659	118995
683.827	117097
683.994	115335
684.162	114291
684.329	116540
684.496	119413
684.664	120075
684.831	120152
684.998	120546
685.166	120387
685.333	118474
685.5	116694
685.667	117198
685.834	118418
686.001	118544
686.168	118293
686.335	118949
686.502	114447
686.669	90103
686.836	73920
687.003	78628
687.17	83029
687.337	87773
687.504	92475
687.67	97424
687.837	102905
688.004	110280
688.17	113203
688.337	110078
688.504	104858
688.67	104743
688.837	102293
689.003	105011
689.17	102801
689.336	105490
689.502	104401
689.669	104671
689.835	109402
690.001	104529
690.168	111407
690.334	106657
690.5	107759
690.666	113257
690.832	108617
690.998	113581
691.164	113519
691.33	107354
691.496	112367
691.662	112682
691.828	111288
691.994	116028
692.16	113669
692.326	107145
692.492	111046
692.657	113513
692.823	106776
692.989	105819
693.155	108726
693.32	107080
693.486	111846
693.651	111140
693.817	105437
693.982	100096
694.148	102133
694.313	106887
694.479	112244
694.644	108350
694.809	106162
694.975	109831
695.14	112347
695.305	111359
695.47	109689
695.635	107197
695.801	111492
695.966	108869
696.131	111894
696.296	116907
696.461	116233
696.626	119729
696.791	121187
696.955	118827
697.12	118052
697.285	120152
697.45	118650
697.615	113730
697.779	110684
697.944	114289
698.109	116677
698.273	119293
698.438	116577
698.603	110763
698.767	107973
698.932	108615
699.096	113058
699.26	109254
699.425	111402
699.589	117488
699.754	109841
699.918	108403
700.082	115022
700.246	113300
700.411	102386
700.575	105766
700.739	113804
700.903	113901
701.067	110257
701.231	114063
701.395	113182
701.559	101087
701.723	107852
701.887	114373
702.051	114784
702.214	108945
702.378	107633
702.542	109264
702.706	103907
702.869	112982
703.033	118179
703.197	119426
703.36	118623
703.524	116985
703.687	110758
703.851	108027
704.014	113752
704.178	118547
704.341	119165
704.505	119290
704.668	118220
704.831	119076
704.994	113877
705.158	110500
705.321	113758
705.484	116130
705.647	114573
705.81	116185
705.973	115062
706.136	116431
706.299	116429
706.462	115332
706.625	115558
706.788	115647
706.951	118789
707.114	117807
707.277	118213
707.439	118871
707.602	118813
707.765	115586
707.928	116723
708.09	119259
708.253	118126
708.415	115657
708.578	116500
708.74	115136
708.903	115618
709.065	116560
709.228	117703
709.39	117626
709.552	117331
709.715	117900
709.877	117700
710.039	118247
710.201	118994
710.364	119786
710.526	118530
710.688	118174
710.85	118415
711.012	117268
711.174	117134
711.336	118668
711.498	118493
711.66	118243
711.822	117230
711.983	117772
712.145	114773
712.307	117709
712.469	119765
712.63	118829
712.792	116372
712.954	114358
713.115	114541
713.277	117097
713.438	119378
713.6	119299
713.761	118073
713.923	118867
714.084	117801
714.245	116388
714.407	117083
714.568	115269
714.729	108994
714.891	111474
715.052	111397
715.213	115566
715.374	116810
715.535	113774
715.696	114353
715.857	112639
716.018	114705
716.179	111601
716.34	102650
716.501	97473
716.662	90418
716.823	92844
716.984	88829
717.144	86890
717.305	76940
717.466	89292
717.626	77209
717.787	84279
717.948	97000
718.108	85270
718.269	90982
718.429	75155
718.59	61940
718.75	78029
718.911	97964
719.071	80467
719.231	71365
719.392	78272
719.552	88050
719.712	82159
719.872	84770
720.033	69635
720.193	82595
720.353	81912
720.513	82022
720.673	86143
720.833	97264
720.993	100702
721.153	107272
721.313	112184
721.473	108019
721.632	101667
721.792	104773
721.952	110370
722.112	111069
722.271	100320
722.431	105102
722.591	105102
722.75	100338
722.91	108165
723.069	101756
723.229	81509
723.388	72612
723.548	81199
723.707	100877
723.867	95849
724.026	81234
724.185	91771
724.344	84011
724.504	87437
724.663	92960
724.822	98205
724.981	94675
725.14	79472
725.299	72174
725.458	97347
725.617	96769
725.776	92283
725.935	96372
726.094	89941
726.253	90344
726.412	79480
726.571	89359
726.729	105366
726.888	100092
727.047	100904
727.206	92344
727.364	91481
727.523	77178
727.681	67845
727.84	87113
727.998	98731
728.157	98184
728.315	103637
728.474	107573
728.632	96313
728.79	85653
728.949	78162
729.107	77279
729.265	84046
729.423	89297
729.582	100331
729.74	106188
729.898	97839
730.056	95153
730.214	83509
730.372	82483
730.53	98692
730.688	102708
730.846	89256
731.004	86385
731.161	92400
731.319	100091
731.477	99546
731.635	91835
731.792	86989
731.95	99989
732.108	108098
732.265	108893
732.423	106608
732.58	101186
732.738	102562
732.895	107259
733.053	104775
733.21	101378
733.368	100856
733.525	106437
733.682	113288
733.839	114544
733.997	113337
734.154	113274
734.311	107091
734.468	107389
734.625	110873
734.782	106133
734.939	102631
735.096	107792
735.253	108638
735.41	108094
735.567	105333
735.724	107563
735.881	108001
736.038	103798
736.194	104052
736.351	103867
736.508	105373
736.665	108098
736.821	103913
736.978	105985
737.134	109156
737.291	110126
737.447	110704
737.604	110450
737.76	110222
737.917	112107
738.073	109569
738.229	105185
738.386	106839
738.542	107352
738.698	106754
738.854	104057
739.01	104355
739.167	107593
739.323	109061
739.479	108909
739.635	107650
739.791	110427
739.947	109050
740.103	109424
740.259	111956
740.414	111078
740.57	109242
740.726	109602
740.882	105749
741.038	104946
741.193	109884
741.349	108656
741.505	105991
741.66	109574
741.816	111031
741.971	111318
742.127	107843
742.282	106317
742.438	109218
742.593	112017
742.748	113062
742.904	112383
743.059	111234
743.214	112118
743.37	112598
743.525	112519
743.68	112184
743.835	111914
743.99	109649
744.145	110012
744.3	110729
744.455	108360
744.61	108301
744.765	109936
744.92	111149
745.075	111631
745.23	112146
745.384	111991
745.539	112291
745.694	112318
745.849	112156
746.003	110797
746.158	107613
746.313	109707
746.467	111719
746.622	112155
746.776	112397
746.931	112856
747.085	112344
747.239	111569
747.394	111328
747.548	110800
747.702	111213
747.857	111642
748.011	111172
748.165	110661
748.319	111019
748.473	111297
748.627	111559
748.781	111247
748.935	110296
749.089	108463
749.243	108636
749.397	104515
749.551	106662
749.705	109148
749.859	110009
750.013	110438
750.166	110951
750.32	110387
750.474	109833
750.628	108590
750.781	109412
750.935	106791
751.088	104889
751.242	108449
751.395	109587
751.549	110011
751.702	110434
751.856	110613
752.009	109948
752.162	107622
752.316	107046
752.469	106688
752.622	108447
752.775	108976
752.928	107892
753.082	106010
753.235	107449
753.388	108487
753.541	109337
753.694	108939
753.847	108838
754	108542
754.152	108828
754.305	108826
754.458	108016
754.611	107097
754.764	107809
754.916	108444
755.069	108586
755.222	108191
755.374	106822
755.527	105457
755.68	107290
755.832	107218
755.985	107593
756.137	107845
756.289	108078
756.442	108042
756.594	107557
756.746	105630
756.899	105805
757.051	106937
757.203	106227
757.355	104831
757.508	106437
757.66	106961
757.812	106661
757.964	106425
758.116	105680
758.268	103701
758.42	102250
758.572	101262
758.724	102868
758.875	104120
759.027	104256
759.179	97688
759.331	72044
759.482	48719
759.634	40398
759.786	35631
759.937	29213
760.089	24034
760.241	21327
760.392	19994
760.544	20078
760.695	22394
760.846	24477
760.998	30267
761.149	33681
761.3	44513
761.452	48998
761.603	65622
761.754	82691
761.905	79175
762.057	68575
762.208	58904
762.359	49854
762.51	55370
762.661	43674
762.812	50908
762.963	50186
763.114	42471
763.265	56658
763.415	48678
763.566	47224
763.717	62569
763.868	51123
764.018	52538
764.169	68762
764.32	57809
764.47	57067
764.621	74772
764.772	68057
764.922	60659
765.072	77547
765.223	79032
765.373	66178
765.524	75841
765.674	84017
765.824	75142
765.975	72226
766.125	86003
766.275	87473
766.425	77455
766.575	84003
766.726	93334
766.876	91883
767.026	85667
767.176	91340
767.326	97455
767.476	96514
767.625	91128
767.775	94616
767.925	96577
768.075	97439
768.225	94557
768.375	96832
768.524	100065
768.674	99950
768.824	96800
768.973	95294
769.123	96074
769.272	99107
769.422	99188
769.571	97915
769.721	96940
769.87	96637
770.019	99799
770.169	99880
770.318	100675
770.467	101579
770.617	101436
770.766	101224
770.915	98896
771.064	98129
771.213	98155
771.362	95824
771.511	97005
771.66	98560
771.809	98937
771.958	99230
772.107	98465
772.256	98146
772.405	98962
772.554	98359
772.702	97668
772.851	98596
773	99195
773.149	99010
773.297	98835
773.446	99305
773.594	99674
773.743	99881
773.891	99970
774.04	99268
774.188	96858
774.337	97600
774.485	97938
774.633	96701
774.782	94094
774.93	96000
775.078	97251
775.226	98480
775.375	98923
775.523	98997
775.671	99238
775.819	98659
775.967	97798
776.115	98309
776.263	98488
776.411	98697
776.559	98873
776.707	98856
776.854	98510
777.002	97564
777.15	96344
777.298	95688
777.445	95198
777.593	96307
777.741	96785
777.888	95245
778.036	94428
778.183	96392
778.331	97216
778.478	97367
778.626	97465
778.773	95453
778.92	96100
779.068	97262
779.215	97612
779.362	97576
779.51	97222
779.657	95415
779.804	95040
779.951	94819
780.098	95678
780.245	96083
780.392	96412
780.539	95894
780.686	94532
780.833	94647
780.98	93874
781.127	93982
781.274	94738
781.42	95437
781.567	95762
781.714	95908
781.861	95548
782.007	95556
782.154	95282
782.3	95494
782.447	95274
782.594	94927
782.74	95139
782.887	95281
783.033	93170
783.179	91199
783.326	92591
783.472	91659
783.618	92589
783.765	93432
783.911	93834
784.057	93902
784.203	94142
784.349	94143
784.495	93779
784.641	93983
784.787	93145
784.933	92026
785.079	92775
785.225	92892
785.371	92174
785.517	91958
785.663	92516
785.809	92690
785.954	92277
786.1	92288
786.246	91961
786.391	91029
786.537	90195
786.683	91239
786.828	90716
786.974	90155
787.119	90720
787.265	90831
787.41	90463
787.555	88243
787.701	89263
787.846	89743
787.991	88230
788.137	88940
788.282	90475
788.427	89991
788.572	88385
788.717	88615
788.862	88291
789.007	87021
789.152	85878
789.297	85284
789.442	82796
789.587	83474
789.732	87192
789.877	87980
790.022	85367
790.166	84515
790.311	86692
790.456	88473
790.601	88335
790.745	84931
790.89	83336
791.034	84703
791.179	85295
791.323	86502
791.468	85786
791.612	84582
791.757	83834
791.901	84321
792.045	84501
792.19	86380
792.334	84865
792.478	85593
792.622	85629
792.767	82178
792.911	81910
793.055	81852
793.199	82299
793.343	85363
793.487	86578
793.631	84277
793.775	85164
793.919	85928
794.063	84888
794.206	83903
794.35	82130
794.494	80745
794.638	81479
794.781	82811
794.925	82662
795.069	81750
795.212	81346
795.356	80568
795.499	79809
795.643	78557
795.786	75825
795.93	73687
796.073	71631
796.217	69344
796.36	1709
796.503	1691
796.646	1688
796.79	1687
