Data from QEP013861_14-43-25-728.txt Node
Date: Tue Jul 09 14:43:25 EDT 2019
User: xiyang
Spectrometer: QEP01386
Trigger mode: 4
Integration Time (sec): 2.000000E-1
Scans to average: 1
Electric dark correction enabled: false
Nonlinearity correction enabled: false
Boxcar width: 0
XAxis mode: Wavelengths
Number of Pixels in Spectrum: 1044
>>>>>Begin Spectral Data<<<<<
629.243	1700
629.421	1688
629.599	1686
629.777	1681
629.955	72985
630.132	73223
630.31	74867
630.488	76848
630.666	77032
630.843	77093
631.021	76408
631.199	76047
631.376	75281
631.554	74529
631.731	75151
631.909	76245
632.086	78271
632.264	78936
632.441	80201
632.618	80733
632.796	80669
632.973	80671
633.15	80531
633.327	80416
633.504	79478
633.682	79858
633.859	81127
634.036	82072
634.213	82026
634.39	82103
634.567	83180
634.744	84047
634.921	84992
635.098	84865
635.274	84842
635.451	84462
635.628	84450
635.805	83906
635.982	83782
636.158	84394
636.335	85486
636.511	86824
636.688	87464
636.865	88097
637.041	88261
637.218	89184
637.394	89729
637.571	89719
637.747	89665
637.923	89692
638.1	89700
638.276	90458
638.452	91012
638.628	91815
638.805	91746
638.981	91122
639.157	90542
639.333	89740
639.509	91043
639.685	90956
639.861	90127
640.037	89761
640.213	92730
640.389	92975
640.565	92160
640.74	90757
640.916	91485
641.092	92056
641.268	92867
641.443	93672
641.619	93523
641.795	93240
641.97	93032
642.146	94100
642.321	96572
642.497	97137
642.672	96676
642.848	96100
643.023	95239
643.199	95849
643.374	96999
643.549	96760
643.724	95870
643.9	95549
644.075	98191
644.25	99540
644.425	99260
644.6	98115
644.775	97280
644.95	96122
645.125	97777
645.3	98237
645.475	97455
645.65	97125
645.825	97773
646	96529
646.175	95448
646.349	96029
646.524	98454
646.699	97960
646.874	96890
647.048	96374
647.223	95790
647.397	95860
647.572	95624
647.746	98149
647.921	97837
648.095	96758
648.27	96868
648.444	98462
648.618	100638
648.793	100540
648.967	98580
649.141	94933
649.315	92033
649.49	91676
649.664	95603
649.838	100241
650.012	102311
650.186	104036
650.36	104712
650.534	105228
650.708	105419
650.882	104651
651.056	104236
651.23	101626
651.403	98267
651.577	96184
651.751	98172
651.925	101953
652.098	104615
652.272	104943
652.446	104801
652.619	105851
652.793	106096
652.966	106160
653.14	104726
653.313	104414
653.487	105764
653.66	107318
653.833	107631
654.007	106708
654.18	105229
654.353	103269
654.526	102730
654.7	102869
654.873	103853
655.046	103726
655.219	101870
655.392	100358
655.565	98944
655.738	95769
655.911	87440
656.084	75117
656.257	72187
656.43	85558
656.602	97534
656.775	100774
656.948	101583
657.121	103010
657.293	103385
657.466	105104
657.639	108434
657.811	109733
657.984	109198
658.156	109046
658.329	108956
658.501	108901
658.674	109391
658.846	111100
659.018	110075
659.191	107177
659.363	107463
659.535	110320
659.707	110740
659.88	111329
660.052	112550
660.224	113039
660.396	112809
660.568	112357
660.74	112119
660.912	112065
661.084	113603
661.256	114315
661.428	114653
661.6	114815
661.771	114971
661.943	115458
662.115	115186
662.287	115302
662.458	114960
662.63	114790
662.802	114788
662.973	114568
663.145	112666
663.316	111345
663.488	113076
663.659	114881
663.831	115291
664.002	114965
664.174	114055
664.345	113662
664.516	115382
664.687	116445
664.859	116639
665.03	117134
665.201	117103
665.372	116920
665.543	117252
665.714	117263
665.885	116824
666.056	115499
666.227	114119
666.398	114730
666.569	116492
666.74	116993
666.911	117295
667.082	117876
667.252	118212
667.423	117871
667.594	115493
667.764	114429
667.935	116591
668.106	118504
668.276	118587
668.447	118798
668.617	118665
668.788	118912
668.958	119254
669.129	119263
669.299	118829
669.469	117788
669.64	117374
669.81	118007
669.98	118971
670.15	118749
670.321	117485
670.491	117934
670.661	118738
670.831	118856
671.001	118911
671.171	118160
671.341	117654
671.511	116352
671.681	115097
671.851	116788
672.02	118108
672.19	118946
672.36	119300
672.53	118619
672.699	118873
672.869	119813
673.039	120041
673.208	119679
673.378	119778
673.547	119980
673.717	119304
673.886	119661
674.056	120036
674.225	119913
674.395	120182
674.564	120101
674.733	119439
674.903	117991
675.072	118714
675.241	119874
675.41	120399
675.579	120560
675.748	120516
675.917	121367
676.087	121387
676.256	121569
676.425	120946
676.593	119519
676.762	118944
676.931	119963
677.1	119817
677.269	120792
677.438	121999
677.606	122272
677.775	122130
677.944	122246
678.112	121455
678.281	120587
678.45	120041
678.618	120630
678.787	121484
678.955	122088
679.124	121881
679.292	121292
679.46	121103
679.629	121314
679.797	121550
679.965	121824
680.134	122198
680.302	121705
680.47	121413
680.638	121419
680.806	121589
680.974	120989
681.142	121920
681.31	121900
681.478	122096
681.646	122969
681.814	122227
681.982	121655
682.15	122772
682.318	123436
682.486	122976
682.653	122028
682.821	120891
682.989	122429
683.156	122835
683.324	122864
683.492	122823
683.659	121545
683.827	119525
683.994	117465
684.162	116707
684.329	119128
684.496	122101
684.664	123070
684.831	123017
684.998	123370
685.166	122937
685.333	120888
685.5	119513
685.667	119808
685.834	120868
686.001	121160
686.168	120621
686.335	121251
686.502	115954
686.669	90528
686.836	75443
687.003	80395
687.17	84924
687.337	89534
687.504	94563
687.67	99734
687.837	105263
688.004	113200
688.17	115236
688.337	111956
688.504	106741
688.67	106951
688.837	104114
689.003	107564
689.17	104535
689.336	107793
689.502	106365
689.669	107018
689.835	111256
690.001	106547
690.168	113641
690.334	108548
690.5	110167
690.666	115257
690.832	110692
690.998	116176
691.164	115718
691.33	109289
691.496	114941
691.662	114664
691.828	113715
691.994	118580
692.16	115280
692.326	108999
692.492	113524
692.657	115733
692.823	108614
692.989	108311
693.155	110836
693.32	109265
693.486	114560
693.651	113054
693.817	107230
693.982	102123
694.148	104347
694.313	109262
694.479	114669
694.644	110273
694.809	108328
694.975	112132
695.14	114943
695.305	113646
695.47	111521
695.635	109230
695.801	113520
695.966	110853
696.131	114326
696.296	119061
696.461	118732
696.626	122457
696.791	123693
696.955	120948
697.12	120502
697.285	122318
697.45	120857
697.615	115883
697.779	113068
697.944	116611
698.109	119080
698.273	121750
698.438	118533
698.603	112672
698.767	109795
698.932	111117
699.096	115271
699.26	111035
699.425	114244
699.589	120016
699.754	111911
699.918	111018
700.082	117177
700.246	115142
700.411	103757
700.575	108328
700.739	116057
700.903	115805
701.067	112397
701.231	116860
701.395	115072
701.559	102900
701.723	110924
701.887	116340
702.051	117011
702.214	110394
702.378	110030
702.542	110893
702.706	106389
702.869	115605
703.033	120859
703.197	121781
703.36	120745
703.524	119296
703.687	112557
703.851	110288
704.014	116322
704.178	121298
704.341	121277
704.505	121253
704.668	120296
704.831	120750
704.994	115878
705.158	112485
705.321	116305
705.484	118382
705.647	117158
705.81	118290
705.973	117293
706.136	118656
706.299	118376
706.462	117439
706.625	117594
706.788	117887
706.951	121047
707.114	120119
707.277	120902
707.439	121014
707.602	121007
707.765	117587
707.928	119318
708.09	121633
708.253	120206
708.415	117891
708.578	118834
708.74	117536
708.903	117928
709.065	118739
709.228	119797
709.39	119998
709.552	119671
709.715	120116
709.877	120196
710.039	120678
710.201	121142
710.364	122091
710.526	120432
710.688	120791
710.85	120795
711.012	119525
711.174	119461
711.336	120989
711.498	121110
711.66	120646
711.822	119280
711.983	119845
712.145	117156
712.307	119845
712.469	122069
712.63	121014
712.792	118542
712.954	116290
713.115	116848
713.277	119481
713.438	121584
713.6	121397
713.761	120720
713.923	120720
714.084	120064
714.245	118475
714.407	119214
714.568	117377
714.729	110822
714.891	113363
715.052	113422
715.213	117937
715.374	118790
715.535	116307
715.696	116628
715.857	114822
716.018	116937
716.179	113303
716.34	104101
716.501	99190
716.662	91606
716.823	94982
716.984	90313
717.144	87523
717.305	78678
717.466	90952
717.626	77747
717.787	86814
717.948	98532
718.108	86581
718.269	92098
718.429	75747
718.59	62757
718.75	81122
718.911	100141
719.071	80702
719.231	72662
719.392	80047
719.552	89843
719.712	83668
719.872	86190
720.033	70616
720.193	85008
720.353	83255
720.513	83190
720.673	88677
720.833	99307
720.993	102920
721.153	109538
721.313	114119
721.473	109339
721.632	103550
721.792	107064
721.952	112804
722.112	113060
722.271	101766
722.431	107657
722.591	106712
722.75	102549
722.91	110413
723.069	102505
723.229	82352
723.388	73850
723.548	83562
723.707	103382
723.867	96495
724.026	83053
724.185	93171
724.344	85538
724.504	89470
724.663	95177
724.822	99862
724.981	95823
725.14	79677
725.299	74223
725.458	99935
725.617	97592
725.776	94581
725.935	97505
726.094	91265
726.253	91707
726.412	79967
726.571	92132
726.729	107443
726.888	101495
727.047	102877
727.206	93179
727.364	92813
727.523	77635
727.681	69422
727.84	89855
727.998	100706
728.157	99779
728.315	105904
728.474	109553
728.632	96772
728.79	87118
728.949	78989
729.107	78880
729.265	85942
729.423	90665
729.582	102579
729.74	107980
729.898	98824
730.056	96421
730.214	84346
730.372	84624
730.53	100964
730.688	104259
730.846	90412
731.004	88371
731.161	94427
731.319	102118
731.477	100926
731.635	92654
731.792	88760
731.95	102430
732.108	110390
732.265	110831
732.423	108413
732.58	102582
732.738	104869
732.895	109220
733.053	106544
733.21	102816
733.368	102977
733.525	108865
733.682	115729
733.839	116954
733.997	115413
734.154	115077
734.311	108303
734.468	109613
734.625	112743
734.782	107595
734.939	104338
735.096	110085
735.253	110472
735.41	109753
735.567	107143
735.724	109653
735.881	109698
736.038	105681
736.194	105879
736.351	105826
736.508	107408
736.665	109965
736.821	105673
736.978	108411
737.134	110810
737.291	112012
737.447	113033
737.604	112710
737.76	112031
737.917	114268
738.073	111151
738.229	106684
738.386	108836
738.542	109311
738.698	108702
738.854	106060
739.01	106699
739.167	109514
739.323	111148
739.479	110947
739.635	109863
739.791	112571
739.947	111075
740.103	111526
740.259	113474
740.414	112792
740.57	111451
740.726	111416
740.882	107331
741.038	106778
741.193	112067
741.349	110514
741.505	107993
741.66	111575
741.816	112988
741.971	112870
742.127	109560
742.282	108140
742.438	111175
742.593	114100
742.748	114938
742.904	114816
743.059	113708
743.214	114359
743.37	114710
743.525	114306
743.68	114195
743.835	114103
743.99	111652
744.145	112058
744.3	112847
744.455	110136
744.61	110520
744.765	112124
744.92	113436
745.075	113671
745.23	114084
745.384	113926
745.539	114462
745.694	114117
745.849	114515
746.003	112643
746.158	109748
746.313	112063
746.467	113707
746.622	114208
746.776	114500
746.931	114932
747.085	114477
747.239	113489
747.394	113509
747.548	113077
747.702	113416
747.857	113870
748.011	113203
748.165	112690
748.319	113121
748.473	113401
748.627	113239
748.781	113089
748.935	112371
749.089	110529
749.243	110550
749.397	106600
749.551	108658
749.705	111291
749.859	112061
750.013	112611
750.166	112626
750.32	112497
750.474	111426
750.628	110733
750.781	111462
750.935	108474
751.088	106705
751.242	110542
751.395	111443
751.549	111897
751.702	112501
751.856	112494
752.009	112197
752.162	109447
752.316	109058
752.469	109090
752.622	110699
752.775	110903
752.928	109697
753.082	107850
753.235	109441
753.388	110723
753.541	111153
753.694	111034
753.847	111076
754	110659
754.152	110731
754.305	110827
754.458	109875
754.611	109015
754.764	109946
754.916	110553
755.069	110596
755.222	110194
755.374	108622
755.527	107583
755.68	109102
755.832	109239
755.985	109785
756.137	110099
756.289	110289
756.442	110329
756.594	109720
756.746	107715
756.899	107737
757.051	109075
757.203	108350
757.355	107010
757.508	108494
757.66	109104
757.812	108779
757.964	108601
758.116	107793
758.268	105506
758.42	104016
758.572	103487
758.724	105367
758.875	106392
759.027	106081
759.179	98523
759.331	71866
759.482	48853
759.634	40935
759.786	36127
759.937	29313
760.089	24309
760.241	21526
760.392	20345
760.544	20497
760.695	22956
760.846	25083
760.998	31002
761.149	34531
761.3	45802
761.452	50371
761.603	68021
761.754	84413
761.905	79608
762.057	69476
762.208	58982
762.359	50929
762.51	56005
762.661	44032
762.812	52471
762.963	50310
763.114	43723
763.265	58238
763.415	48669
763.566	48875
763.717	63710
763.868	51281
764.018	54391
764.169	70352
764.32	57894
764.47	59047
764.621	76360
764.772	68100
764.922	62491
765.072	79750
765.223	79640
765.373	67322
765.524	78005
765.674	85526
765.824	75750
765.975	74203
766.125	87949
766.275	88501
766.425	78815
766.575	86354
766.726	95456
766.876	93198
767.026	87344
767.176	93259
767.326	99243
767.476	97889
767.625	92714
767.775	96779
767.925	98394
768.075	99312
768.225	96211
768.375	98995
768.524	101733
768.674	101703
768.824	98465
768.973	96737
769.123	98204
769.272	101070
769.422	100801
769.571	99860
769.721	98731
769.87	98447
770.019	101578
770.169	101864
770.318	102664
770.467	103287
770.617	103763
770.766	103025
770.915	100721
771.064	99723
771.213	100115
771.362	97806
771.511	99224
771.66	100920
771.809	101073
771.958	100836
772.107	100680
772.256	99895
772.405	100815
772.554	100400
772.702	99563
772.851	100879
773	101229
773.149	101149
773.297	100976
773.446	101224
773.594	101808
773.743	101925
773.891	101660
774.04	100833
774.188	98478
774.337	99759
774.485	99900
774.633	98317
774.782	95988
774.93	97833
775.078	99160
775.226	100601
775.375	100607
775.523	100895
775.671	101122
775.819	100291
775.967	99803
776.115	100009
776.263	100408
776.411	100484
776.559	100869
776.707	100749
776.854	100382
777.002	99312
777.15	97848
777.298	97387
777.445	97225
777.593	98314
777.741	98791
777.888	96686
778.036	96275
778.183	98247
778.331	98970
778.478	99423
778.626	99447
778.773	97256
778.92	98029
779.068	99326
779.215	99580
779.362	99642
779.51	98972
779.657	97335
779.804	96826
779.951	96567
780.098	97567
780.245	98013
780.392	98402
780.539	97695
780.686	96415
780.833	96633
780.98	95915
781.127	96190
781.274	96867
781.42	97311
781.567	97697
781.714	97760
781.861	97696
782.007	97656
782.154	97221
782.3	97360
782.447	97116
782.594	97011
782.74	96916
782.887	97148
783.033	94797
783.179	93050
783.326	94697
783.472	93479
783.618	94396
783.765	95477
783.911	95807
784.057	96004
784.203	96132
784.349	95817
784.495	95437
784.641	95736
784.787	95126
784.933	93923
785.079	94742
785.225	94703
785.371	93796
785.517	93851
785.663	94192
785.809	94393
785.954	94129
786.1	94138
786.246	93462
786.391	92812
786.537	91872
786.683	92807
786.828	92468
786.974	91956
787.119	92436
787.265	92428
787.41	92004
787.555	89746
787.701	90795
787.846	91167
787.991	90125
788.137	90732
788.282	92036
788.427	91287
788.572	89712
788.717	90051
788.862	89968
789.007	88551
789.152	87383
789.297	86580
789.442	83998
789.587	85085
789.732	88782
789.877	89422
790.022	86518
790.166	86037
790.311	88385
790.456	90124
790.601	90048
790.745	86271
790.89	84975
791.034	86388
791.179	86763
791.323	88210
791.468	87393
791.612	85847
791.757	85527
791.901	86093
792.045	86236
792.19	87987
792.334	86442
792.478	87639
792.622	87393
792.767	83652
792.911	83554
793.055	83229
793.199	83860
793.343	87009
793.487	88259
793.631	85666
793.775	87029
793.919	87618
794.063	86612
794.206	85255
794.35	83606
794.494	82275
794.638	83304
794.781	84608
794.925	84214
795.069	83188
795.212	82876
795.356	81933
795.499	81371
795.643	79945
795.786	77063
795.93	74726
796.073	73163
796.217	70767
796.36	1709
796.503	1694
796.646	1688
796.79	1688
