Data from QEP013861_14-43-26-328.txt Node
Date: Tue Jul 09 14:43:26 EDT 2019
User: xiyang
Spectrometer: QEP01386
Trigger mode: 4
Integration Time (sec): 2.000000E-1
Scans to average: 1
Electric dark correction enabled: false
Nonlinearity correction enabled: false
Boxcar width: 0
XAxis mode: Wavelengths
Number of Pixels in Spectrum: 1044
>>>>>Begin Spectral Data<<<<<
629.243	1704
629.421	1686
629.599	1686
629.777	1685
629.955	72734
630.132	73181
630.31	74908
630.488	76688
630.666	77096
630.843	77045
631.021	76436
631.199	76238
631.376	75292
631.554	74451
631.731	75451
631.909	76202
632.086	78356
632.264	79048
632.441	80193
632.618	80884
632.796	80546
632.973	80744
633.15	80570
633.327	80388
633.504	79468
633.682	79894
633.859	80989
634.036	81895
634.213	81989
634.39	81995
634.567	83347
634.744	83898
634.921	84829
635.098	84724
635.274	84899
635.451	84168
635.628	84418
635.805	83868
635.982	83841
636.158	84164
636.335	85273
636.511	86717
636.688	87312
636.865	87966
637.041	88291
637.218	88919
637.394	89626
637.571	89621
637.747	89550
637.923	89818
638.1	89897
638.276	90464
638.452	91181
638.628	91648
638.805	91939
638.981	91234
639.157	90541
639.333	89871
639.509	90875
639.685	91092
639.861	90158
640.037	89697
640.213	92644
640.389	93046
640.565	92065
640.74	90973
640.916	91523
641.092	92007
641.268	92783
641.443	93620
641.619	93686
641.795	93125
641.97	93142
642.146	94129
642.321	96610
642.497	96833
642.672	96700
642.848	95895
643.023	95069
643.199	95670
643.374	96888
643.549	96775
643.724	95727
643.9	95471
644.075	98062
644.25	99547
644.425	99093
644.6	98203
644.775	96914
644.95	96136
645.125	97859
645.3	98299
645.475	97538
645.65	96879
645.825	97714
646	96676
646.175	95452
646.349	95954
646.524	98176
646.699	97665
646.874	96762
647.048	96545
647.223	95588
647.397	95824
647.572	95823
647.746	98316
647.921	97862
648.095	96655
648.27	96751
648.444	98555
648.618	100589
648.793	100257
648.967	98496
649.141	94878
649.315	92076
649.49	91562
649.664	95528
649.838	100085
650.012	102360
650.186	103932
650.36	104627
650.534	105213
650.708	105262
650.882	104722
651.056	104215
651.23	101465
651.403	98162
651.577	96041
651.751	98237
651.925	102040
652.098	104486
652.272	104993
652.446	104830
652.619	105634
652.793	106049
652.966	105845
653.14	104770
653.313	104513
653.487	105936
653.66	107666
653.833	107580
654.007	106874
654.18	104870
654.353	103021
654.526	102659
654.7	102785
654.873	103937
655.046	103486
655.219	101679
655.392	100457
655.565	98796
655.738	95680
655.911	87031
656.084	75158
656.257	72119
656.43	85397
656.602	97465
656.775	100507
656.948	101631
657.121	102866
657.293	103227
657.466	105211
657.639	108343
657.811	109449
657.984	108963
658.156	108992
658.329	109013
658.501	108879
658.674	109401
658.846	111084
659.018	109763
659.191	107272
659.363	107529
659.535	110532
659.707	110691
659.88	111596
660.052	112769
660.224	112970
660.396	112684
660.568	112166
660.74	111985
660.912	112253
661.084	113669
661.256	114070
661.428	114823
661.6	114707
661.771	114837
661.943	115360
662.115	115435
662.287	115334
662.458	115067
662.63	114641
662.802	114863
662.973	114746
663.145	112851
663.316	111402
663.488	112953
663.659	115027
663.831	115117
664.002	114952
664.174	113863
664.345	113672
664.516	115397
664.687	116441
664.859	116850
665.03	117265
665.201	117066
665.372	117098
665.543	117215
665.714	117476
665.885	116896
666.056	115466
666.227	114206
666.398	114872
666.569	116391
666.74	116878
666.911	117556
667.082	117910
667.252	118218
667.423	117961
667.594	115207
667.764	114368
667.935	116613
668.106	118308
668.276	118880
668.447	119011
668.617	118737
668.788	118882
668.958	119157
669.129	119148
669.299	119004
669.469	117689
669.64	117332
669.81	118300
669.98	118930
670.15	118715
670.321	117558
670.491	117693
670.661	118753
670.831	118552
671.001	118666
671.171	118141
671.341	117574
671.511	116218
671.681	115002
671.851	116657
672.02	118249
672.19	118738
672.36	119216
672.53	118321
672.699	119043
672.869	119929
673.039	120272
673.208	119873
673.378	119820
673.547	119932
673.717	119400
673.886	119575
674.056	119884
674.225	119807
674.395	119924
674.564	120104
674.733	119549
674.903	118149
675.072	118767
675.241	119802
675.41	120397
675.579	120468
675.748	120655
675.917	121201
676.087	121432
676.256	121277
676.425	121027
676.593	119230
676.762	119081
676.931	120075
677.1	120043
677.269	120765
677.438	122208
677.606	121828
677.775	122245
677.944	122096
678.112	121542
678.281	120305
678.45	120141
678.618	120490
678.787	121634
678.955	122143
679.124	121879
679.292	121283
679.46	120914
679.629	120993
679.797	121239
679.965	121752
680.134	122316
680.302	121595
680.47	121321
680.638	121471
680.806	121564
680.974	121130
681.142	121977
681.31	121764
681.478	122370
681.646	122862
681.814	122163
681.982	121587
682.15	122757
682.318	123300
682.486	123436
682.653	121772
682.821	120937
682.989	122463
683.156	123072
683.324	122868
683.492	122690
683.659	121393
683.827	119183
683.994	117546
684.162	116561
684.329	118931
684.496	122106
684.664	122721
684.831	122655
684.998	123269
685.166	123169
685.333	120907
685.5	119169
685.667	119874
685.834	120973
686.001	121069
686.168	120334
686.335	121334
686.502	116088
686.669	90402
686.836	75462
687.003	80317
687.17	84911
687.337	89899
687.504	94154
687.67	99757
687.837	105240
688.004	113235
688.17	115223
688.337	111866
688.504	106777
688.67	106861
688.837	104207
689.003	107608
689.17	104715
689.336	107790
689.502	106140
689.669	107146
689.835	111331
690.001	106509
690.168	113739
690.334	108471
690.5	110128
690.666	115445
690.832	110693
690.998	116052
691.164	115824
691.33	109197
691.496	114722
691.662	114623
691.828	113687
691.994	118749
692.16	115423
692.326	109023
692.492	113380
692.657	115777
692.823	108600
692.989	108374
693.155	110587
693.32	109530
693.486	114518
693.651	112917
693.817	107105
693.982	102027
694.148	104321
694.313	109323
694.479	114873
694.644	110055
694.809	108359
694.975	112296
695.14	114591
695.305	113398
695.47	111419
695.635	109049
695.801	113432
695.966	110785
696.131	114351
696.296	118878
696.461	118480
696.626	122318
696.791	123685
696.955	120888
697.12	120149
697.285	122688
697.45	120793
697.615	115787
697.779	113010
697.944	116730
698.109	119039
698.273	121662
698.438	118435
698.603	112643
698.767	110124
698.932	110784
699.096	115367
699.26	110922
699.425	114068
699.589	119801
699.754	111786
699.918	110927
700.082	117189
700.246	114995
700.411	103988
700.575	108272
700.739	116178
700.903	116011
701.067	112283
701.231	116764
701.395	114943
701.559	102637
701.723	111069
701.887	116550
702.051	117140
702.214	110429
702.378	109930
702.542	110912
702.706	106130
702.869	115596
703.033	120356
703.197	122027
703.36	120631
703.524	119338
703.687	112597
703.851	110243
704.014	116073
704.178	121014
704.341	121390
704.505	121277
704.668	120176
704.831	120837
704.994	116052
705.158	112360
705.321	116232
705.484	118005
705.647	116747
705.81	118210
705.973	117295
706.136	118445
706.299	118306
706.462	117598
706.625	117672
706.788	117512
706.951	121029
707.114	120247
707.277	120612
707.439	120995
707.602	121139
707.765	117544
707.928	119061
708.09	121493
708.253	120332
708.415	118000
708.578	118651
708.74	117292
708.903	117910
709.065	118869
709.228	119956
709.39	119925
709.552	119712
709.715	120065
709.877	120087
710.039	120645
710.201	121175
710.364	122029
710.526	120598
710.688	120739
710.85	120923
711.012	119406
711.174	119261
711.336	121105
711.498	120823
711.66	120513
711.822	119098
711.983	119816
712.145	116873
712.307	120097
712.469	121824
712.63	120759
712.792	118682
712.954	116359
713.115	116731
713.277	119414
713.438	121935
713.6	121214
713.761	120512
713.923	120862
714.084	120131
714.245	118571
714.407	119280
714.568	117112
714.729	110719
714.891	113704
715.052	113540
715.213	118149
715.374	119018
715.535	116117
715.696	116450
715.857	114756
716.018	117073
716.179	113562
716.34	104119
716.501	99159
716.662	91638
716.823	94788
716.984	90170
717.144	87708
717.305	78881
717.466	91092
717.626	77876
717.787	86734
717.948	98333
718.108	86378
718.269	92207
718.429	75858
718.59	62603
718.75	81108
718.911	100032
719.071	80475
719.231	72597
719.392	80189
719.552	89929
719.712	83442
719.872	86013
720.033	70482
720.193	84668
720.353	83310
720.513	83195
720.673	88332
720.833	99207
720.993	103046
721.153	109562
721.313	114299
721.473	109234
721.632	103468
721.792	106842
721.952	112385
722.112	112962
722.271	101916
722.431	107748
722.591	106638
722.75	102480
722.91	110622
723.069	102631
723.229	82422
723.388	73716
723.548	83847
723.707	103213
723.867	96421
724.026	83271
724.185	93190
724.344	85454
724.504	89411
724.663	94820
724.822	99790
724.981	95820
725.14	79473
725.299	74301
725.458	100265
725.617	97682
725.776	94341
725.935	97501
726.094	91354
726.253	91639
726.412	80170
726.571	92143
726.729	107505
726.888	101444
727.047	103119
727.206	93206
727.364	92954
727.523	77537
727.681	69287
727.84	89731
727.998	100443
728.157	99779
728.315	105952
728.474	109550
728.632	96604
728.79	87057
728.949	78571
729.107	78973
729.265	85672
729.423	90715
729.582	102373
729.74	107965
729.898	98838
730.056	96505
730.214	84276
730.372	84536
730.53	101223
730.688	103932
730.846	90148
731.004	88230
731.161	94242
731.319	102072
731.477	100889
731.635	92591
731.792	88869
731.95	102557
732.108	110115
732.265	110776
732.423	108158
732.58	102721
732.738	104768
732.895	109154
733.053	106698
733.21	102691
733.368	102902
733.525	108578
733.682	115431
733.839	116731
733.997	115303
734.154	114990
734.311	108342
734.468	109633
734.625	112797
734.782	107541
734.939	104429
735.096	109952
735.253	110420
735.41	109764
735.567	106881
735.724	109661
735.881	109669
736.038	105524
736.194	105710
736.351	105840
736.508	107375
736.665	109824
736.821	105547
736.978	108240
737.134	111056
737.291	112006
737.447	112910
737.604	112426
737.76	112228
737.917	114082
738.073	111089
738.229	106583
738.386	108912
738.542	109251
738.698	108572
738.854	105961
739.01	106401
739.167	109548
739.323	111036
739.479	110637
739.635	109739
739.791	112277
739.947	111245
740.103	111581
740.259	113896
740.414	112632
740.57	111191
740.726	111118
740.882	107374
741.038	106851
741.193	112191
741.349	110386
741.505	108091
741.66	111637
741.816	112989
741.971	112975
742.127	109513
742.282	108224
742.438	111295
742.593	113803
742.748	114837
742.904	114752
743.059	113474
743.214	114210
743.37	114539
743.525	114249
743.68	114236
743.835	113898
743.99	111581
744.145	111782
744.3	112909
744.455	110057
744.61	110284
744.765	112284
744.92	113338
745.075	113869
745.23	113937
745.384	113915
745.539	114254
745.694	114291
745.849	114113
746.003	112779
746.158	109753
746.313	111707
746.467	113498
746.622	114281
746.776	114357
746.931	114591
747.085	114317
747.239	113652
747.394	113602
747.548	113061
747.702	113323
747.857	113657
748.011	113163
748.165	112434
748.319	112959
748.473	113447
748.627	113168
748.781	113037
748.935	112107
749.089	110177
749.243	110246
749.397	106138
749.551	109041
749.705	111219
749.859	112048
750.013	112428
750.166	112772
750.32	112305
750.474	111613
750.628	110440
750.781	111549
750.935	108502
751.088	106744
751.242	110450
751.395	111399
751.549	112122
751.702	112533
751.856	112703
752.009	112014
752.162	109291
752.316	108642
752.469	108913
752.622	110485
752.775	111054
752.928	109595
753.082	107857
753.235	109549
753.388	110727
753.541	111067
753.694	110967
753.847	110916
754	110471
754.152	110230
754.305	110613
754.458	109827
754.611	109293
754.764	109735
754.916	110475
755.069	110606
755.222	110505
755.374	108331
755.527	107662
755.68	109150
755.832	109166
755.985	109755
756.137	109991
756.289	110275
756.442	110134
756.594	109478
756.746	107557
756.899	107935
757.051	109184
757.203	108179
757.355	106905
757.508	108368
757.66	109102
757.812	108798
757.964	108525
758.116	107621
758.268	105481
758.42	103861
758.572	103333
758.724	105245
758.875	106322
759.027	105946
759.179	98539
759.331	71711
759.482	48948
759.634	41018
759.786	36066
759.937	29487
760.089	24101
760.241	21566
760.392	20274
760.544	20515
760.695	22930
760.846	24914
760.998	31126
761.149	34339
761.3	45735
761.452	50194
761.603	67941
761.754	84396
761.905	79530
762.057	69478
762.208	58942
762.359	50766
762.51	55884
762.661	44040
762.812	52508
762.963	50178
763.114	43627
763.265	58131
763.415	48550
763.566	48842
763.717	63686
763.868	51213
764.018	54465
764.169	70406
764.32	57871
764.47	58972
764.621	76592
764.772	68170
764.922	62244
765.072	79585
765.223	79870
765.373	67209
765.524	78035
765.674	85677
765.824	75782
765.975	74142
766.125	87851
766.275	88398
766.425	78701
766.575	86109
766.726	95425
766.876	93187
767.026	87162
767.176	93454
767.326	99294
767.476	97998
767.625	92904
767.775	96569
767.925	98285
768.075	98989
768.225	96318
768.375	98930
768.524	101793
768.674	101805
768.824	98289
768.973	97019
769.123	98024
769.272	101032
769.422	100637
769.571	99700
769.721	98486
769.87	98573
770.019	101258
770.169	101756
770.318	102568
770.467	103276
770.617	103581
770.766	103096
770.915	100648
771.064	99744
771.213	100051
771.362	97595
771.511	99437
771.66	100875
771.809	100828
771.958	101007
772.107	100442
772.256	99777
772.405	100676
772.554	100387
772.702	99607
772.851	100800
773	101350
773.149	100874
773.297	100941
773.446	101161
773.594	101789
773.743	101782
773.891	101770
774.04	100549
774.188	98302
774.337	99505
774.485	99811
774.633	98688
774.782	95846
774.93	97682
775.078	99362
775.226	100311
775.375	100623
775.523	101182
775.671	101115
775.819	100232
775.967	99798
776.115	100053
776.263	100269
776.411	100175
776.559	100475
776.707	100679
776.854	100356
777.002	99384
777.15	97691
777.298	97123
777.445	96916
777.593	98213
777.741	98698
777.888	96829
778.036	96150
778.183	97844
778.331	98981
778.478	99184
778.626	99293
778.773	97319
778.92	98145
779.068	98881
779.215	99604
779.362	99531
779.51	99216
779.657	97306
779.804	96805
779.951	96592
780.098	97510
780.245	97949
780.392	98019
780.539	97720
780.686	96682
780.833	96558
780.98	95666
781.127	96054
781.274	96750
781.42	97321
781.567	97657
781.714	97614
781.861	97620
782.007	97567
782.154	97530
782.3	97427
782.447	97064
782.594	96721
782.74	97002
782.887	96894
783.033	94592
783.179	92955
783.326	94278
783.472	93360
783.618	94231
783.765	95506
783.911	95900
784.057	95912
784.203	96093
784.349	95768
784.495	95561
784.641	95695
784.787	94950
784.933	93873
785.079	94802
785.225	94698
785.371	93693
785.517	93848
785.663	94392
785.809	94409
785.954	94117
786.1	93858
786.246	93654
786.391	92743
786.537	91743
786.683	92952
786.828	92417
786.974	91867
787.119	92446
787.265	92619
787.41	91942
787.555	89494
787.701	90838
787.846	91256
787.991	90171
788.137	90609
788.282	92183
788.427	91652
788.572	89835
788.717	90176
788.862	89697
789.007	88643
789.152	87561
789.297	86703
789.442	84033
789.587	85068
789.732	88786
789.877	89444
790.022	86631
790.166	85798
790.311	88288
790.456	90360
790.601	89908
790.745	86144
790.89	84947
791.034	86439
791.179	86850
791.323	88023
791.468	87483
791.612	85976
791.757	85635
791.901	86072
792.045	86405
792.19	88063
792.334	86510
792.478	87356
792.622	87171
792.767	83747
792.911	83568
793.055	83093
793.199	83999
793.343	87130
793.487	88019
793.631	85699
793.775	86886
793.919	87843
794.063	86498
794.206	85368
794.35	83300
794.494	82253
794.638	83008
794.781	84497
794.925	84180
795.069	83157
795.212	82927
795.356	82150
795.499	81171
795.643	79864
795.786	76983
795.93	74878
796.073	72813
796.217	70825
796.36	1713
796.503	1687
796.646	1687
796.79	1690
