Data from QEP013861_14-42-17-334.txt Node
Date: Tue Jul 09 14:42:17 EDT 2019
User: xiyang
Spectrometer: QEP01386
Trigger mode: 4
Integration Time (sec): 2.000000E-1
Scans to average: 1
Electric dark correction enabled: false
Nonlinearity correction enabled: false
Boxcar width: 0
XAxis mode: Wavelengths
Number of Pixels in Spectrum: 1044
>>>>>Begin Spectral Data<<<<<
629.243	1703
629.421	1688
629.599	1685
629.777	1687
629.955	71146
630.132	71592
630.31	73069
630.488	75248
630.666	75569
630.843	75758
631.021	74962
631.199	74396
631.376	73908
631.554	72811
631.731	73740
631.909	74600
632.086	76625
632.264	77444
632.441	78476
632.618	79185
632.796	78905
632.973	79242
633.15	78937
633.327	78689
633.504	77815
633.682	77855
633.859	79261
634.036	80231
634.213	80448
634.39	80440
634.567	81521
634.744	82236
634.921	83093
635.098	83108
635.274	83183
635.451	82566
635.628	82540
635.805	82367
635.982	82040
636.158	82438
636.335	83363
636.511	84974
636.688	85722
636.865	86023
637.041	86281
637.218	87004
637.394	87853
637.571	87841
637.747	87603
637.923	87716
638.1	88098
638.276	88741
638.452	89304
638.628	89939
638.805	89862
638.981	89452
639.157	88714
639.333	88273
639.509	88986
639.685	89076
639.861	88598
640.037	88002
640.213	90829
640.389	91164
640.565	90272
640.74	89164
640.916	89525
641.092	90166
641.268	91008
641.443	91897
641.619	91601
641.795	91369
641.97	91176
642.146	92094
642.321	94527
642.497	95125
642.672	94851
642.848	94109
643.023	93433
643.199	93675
643.374	95114
643.549	94747
643.724	93948
643.9	93638
644.075	96163
644.25	97366
644.425	97312
644.6	96316
644.775	95282
644.95	94187
645.125	95651
645.3	96376
645.475	95554
645.65	95235
645.825	95713
646	94756
646.175	93551
646.349	93797
646.524	96071
646.699	96024
646.874	94964
647.048	94434
647.223	93620
647.397	93845
647.572	93783
647.746	96039
647.921	96042
648.095	94842
648.27	94875
648.444	96285
648.618	98589
648.793	98339
648.967	96600
649.141	92982
649.315	90249
649.49	89669
649.664	93527
649.838	97996
650.012	100175
650.186	101873
650.36	102565
650.534	103204
650.708	103196
650.882	102682
651.056	102087
651.23	99673
651.403	96372
651.577	94359
651.751	96052
651.925	99803
652.098	102401
652.272	102570
652.446	102691
652.619	103630
652.793	103854
652.966	103868
653.14	102575
653.313	102272
653.487	103633
653.66	105208
653.833	105714
654.007	104887
654.18	103119
654.353	101327
654.526	100795
654.7	101020
654.873	101869
655.046	101808
655.219	99875
655.392	98390
655.565	97310
655.738	94004
655.911	86133
656.084	74050
656.257	70893
656.43	82943
656.602	95301
656.775	98860
656.948	99580
657.121	101257
657.293	101042
657.466	102703
657.639	105936
657.811	107526
657.984	106937
658.156	106816
658.329	107060
658.501	106642
658.674	107315
658.846	108822
659.018	107849
659.191	105261
659.363	105329
659.535	108105
659.707	108668
659.88	109201
660.052	110452
660.224	110606
660.396	110420
660.568	110159
660.74	109742
660.912	109875
661.084	111207
661.256	111762
661.428	112227
661.6	112614
661.771	112503
661.943	112771
662.115	112896
662.287	112798
662.458	112646
662.63	112136
662.802	112443
662.973	112408
663.145	110488
663.316	109527
663.488	110782
663.659	112817
663.831	113139
664.002	112674
664.174	111825
664.345	111489
664.516	112866
664.687	114064
664.859	114425
665.03	114877
665.201	114831
665.372	114705
665.543	114696
665.714	114815
665.885	114809
666.056	113622
666.227	111937
666.398	112486
666.569	113829
666.74	114641
666.911	115284
667.082	115526
667.252	115595
667.423	115693
667.594	113311
667.764	112443
667.935	114149
668.106	116041
668.276	116606
668.447	116326
668.617	116649
668.788	116531
668.958	117206
669.129	117028
669.299	116474
669.469	115293
669.64	114888
669.81	115950
669.98	116808
670.15	116393
670.321	115217
670.491	115253
670.661	116285
670.831	116498
671.001	116572
671.171	115820
671.341	115185
671.511	114180
671.681	112666
671.851	114255
672.02	115801
672.19	116061
672.36	116974
672.53	116111
672.699	116405
672.869	117376
673.039	117746
673.208	117426
673.378	117317
673.547	117648
673.717	117169
673.886	117340
674.056	117628
674.225	117502
674.395	117255
674.564	117535
674.733	117201
674.903	115946
675.072	116603
675.241	117499
675.41	117735
675.579	117896
675.748	118250
675.917	118808
676.087	118986
676.256	119074
676.425	118743
676.593	117111
676.762	116612
676.931	117956
677.1	117509
677.269	118478
677.438	119497
677.606	119724
677.775	119769
677.944	119860
678.112	119127
678.281	117998
678.45	117760
678.618	118076
678.787	119243
678.955	119652
679.124	119517
679.292	119061
679.46	118501
679.629	118818
679.797	119002
679.965	119474
680.134	119967
680.302	119241
680.47	118865
680.638	119091
680.806	119404
680.974	118642
681.142	119480
681.31	119367
681.478	120081
681.646	120267
681.814	119932
681.982	119298
682.15	120233
682.318	120802
682.486	120746
682.653	119790
682.821	118539
682.989	119996
683.156	120771
683.324	120766
683.492	120342
683.659	119288
683.827	116791
683.994	115309
684.162	114650
684.329	116759
684.496	119802
684.664	120786
684.831	120158
684.998	121140
685.166	120793
685.333	118882
685.5	116847
685.667	117696
685.834	118601
686.001	118710
686.168	118322
686.335	118885
686.502	114503
686.669	90171
686.836	74006
687.003	78650
687.17	82930
687.337	87866
687.504	92236
687.67	97799
687.837	103178
688.004	110398
688.17	113182
688.337	110117
688.504	104790
688.67	104864
688.837	102164
689.003	104911
689.17	102615
689.336	105312
689.502	104520
689.669	104497
689.835	109392
690.001	104617
690.168	111279
690.334	106808
690.5	107761
690.666	113055
690.832	108580
690.998	113416
691.164	113765
691.33	107166
691.496	112460
691.662	112568
691.828	111314
691.994	115957
692.16	113632
692.326	106827
692.492	110828
692.657	113586
692.823	107027
692.989	105996
693.155	108609
693.32	107186
693.486	111978
693.651	111222
693.817	105660
693.982	100303
694.148	102447
694.313	106934
694.479	112249
694.644	108348
694.809	106216
694.975	110013
695.14	112388
695.305	111252
695.47	109985
695.635	106944
695.801	111543
695.966	108883
696.131	111751
696.296	116783
696.461	116183
696.626	119980
696.791	121473
696.955	118794
697.12	118222
697.285	120212
697.45	118558
697.615	113927
697.779	110870
697.944	114585
698.109	116917
698.273	119502
698.438	116492
698.603	110686
698.767	108278
698.932	108483
699.096	112966
699.26	109176
699.425	111552
699.589	117480
699.754	109993
699.918	108222
700.082	114557
700.246	113269
700.411	102625
700.575	105617
700.739	113715
700.903	113846
701.067	110227
701.231	114136
701.395	113020
701.559	101014
701.723	108072
701.887	114276
702.051	114690
702.214	108783
702.378	107598
702.542	109251
702.706	103986
702.869	113260
703.033	118364
703.197	119580
703.36	118453
703.524	116921
703.687	110629
703.851	107814
704.014	113864
704.178	118638
704.341	119279
704.505	119167
704.668	118166
704.831	118813
704.994	113993
705.158	110392
705.321	113691
705.484	116340
705.647	114748
705.81	116070
705.973	115038
706.136	116190
706.299	116353
706.462	115221
706.625	115577
706.788	115759
706.951	118789
707.114	118000
707.277	118476
707.439	119019
707.602	119162
707.765	115688
707.928	116517
708.09	119239
708.253	118329
708.415	115949
708.578	116628
708.74	115259
708.903	115846
709.065	116623
709.228	117672
709.39	117567
709.552	117435
709.715	117945
709.877	117914
710.039	118454
710.201	119055
710.364	119889
710.526	118351
710.688	118112
710.85	118328
711.012	117474
711.174	117150
711.336	118858
711.498	118993
711.66	118442
711.822	116969
711.983	117767
712.145	114747
712.307	117393
712.469	119787
712.63	118711
712.792	116301
712.954	114502
713.115	114474
713.277	117220
713.438	119370
713.6	119109
713.761	118357
713.923	118847
714.084	118062
714.245	116384
714.407	116992
714.568	115143
714.729	109203
714.891	111607
715.052	111541
715.213	115833
715.374	116939
715.535	114064
715.696	114558
715.857	112736
716.018	115028
716.179	111812
716.34	102784
716.501	97612
716.662	90495
716.823	93026
716.984	88793
717.144	86869
717.305	77119
717.466	89404
717.626	77100
717.787	84497
717.948	97262
718.108	85237
718.269	90863
718.429	75247
718.59	61803
718.75	78091
718.911	97948
719.071	80225
719.231	71425
719.392	78357
719.552	88115
719.712	82210
719.872	85093
720.033	69728
720.193	82782
720.353	81968
720.513	81956
720.673	86074
720.833	97274
720.993	100753
721.153	107331
721.313	112178
721.473	108039
721.632	101668
721.792	104676
721.952	110433
722.112	111045
722.271	100480
722.431	105250
722.591	105270
722.75	100138
722.91	108182
723.069	101731
723.229	81733
723.388	72736
723.548	81440
723.707	100933
723.867	96122
724.026	81265
724.185	91776
724.344	84149
724.504	87901
724.663	93202
724.822	98365
724.981	94918
725.14	79517
725.299	72267
725.458	97342
725.617	96750
725.776	92556
725.935	96206
726.094	89910
726.253	90608
726.412	79239
726.571	89438
726.729	105197
726.888	100063
727.047	101235
727.206	92193
727.364	91522
727.523	77487
727.681	67984
727.84	87167
727.998	98864
728.157	98305
728.315	103750
728.474	107585
728.632	96151
728.79	85797
728.949	78126
729.107	77258
729.265	84100
729.423	89331
729.582	99853
729.74	106380
729.898	97752
730.056	95144
730.214	83561
730.372	82747
730.53	98511
730.688	102667
730.846	89251
731.004	86487
731.161	92559
731.319	99875
731.477	99383
731.635	91649
731.792	86921
731.95	100375
732.108	108040
732.265	109332
732.423	106534
732.58	101011
732.738	102359
732.895	107434
733.053	104639
733.21	101486
733.368	100731
733.525	106355
733.682	113106
733.839	114658
733.997	113312
734.154	113116
734.311	106946
734.468	107632
734.625	110974
734.782	106095
734.939	102535
735.096	107823
735.253	108769
735.41	108045
735.567	105195
735.724	107552
735.881	108043
736.038	104030
736.194	104019
736.351	103993
736.508	105363
736.665	107985
736.821	103888
736.978	106279
737.134	109195
737.291	110206
737.447	110861
737.604	110453
737.76	110117
737.917	112248
738.073	109952
738.229	105147
738.386	107022
738.542	107658
738.698	106716
738.854	104125
739.01	104378
739.167	107539
739.323	108998
739.479	109155
739.635	107822
739.791	110383
739.947	109289
740.103	109408
740.259	111829
740.414	111051
740.57	109347
740.726	109436
740.882	105677
741.038	104875
741.193	110076
741.349	108820
741.505	106137
741.66	109554
741.816	111302
741.971	111290
742.127	108046
742.282	106253
742.438	109135
742.593	111937
742.748	113179
742.904	112823
743.059	111612
743.214	112384
743.37	112465
743.525	112382
743.68	112298
743.835	112000
743.99	109541
744.145	110049
744.3	110890
744.455	108136
744.61	108358
744.765	110007
744.92	110808
745.075	111494
745.23	112018
745.384	111770
745.539	112289
745.694	112286
745.849	112392
746.003	110913
746.158	107834
746.313	109806
746.467	111862
746.622	112247
746.776	112661
746.931	112364
747.085	112619
747.239	111698
747.394	111408
747.548	111300
747.702	111208
747.857	112044
748.011	111321
748.165	110676
748.319	111255
748.473	111241
748.627	111352
748.781	111147
748.935	110375
749.089	108545
749.243	108623
749.397	104635
749.551	106705
749.705	109105
749.859	109920
750.013	110496
750.166	110638
750.32	110236
750.474	109624
750.628	108511
750.781	109623
750.935	106718
751.088	104805
751.242	108418
751.395	109475
751.549	109896
751.702	110600
751.856	110578
752.009	110035
752.162	107425
752.316	106914
752.469	106797
752.622	108734
752.775	109308
752.928	108061
753.082	105869
753.235	107896
753.388	108668
753.541	109282
753.694	108983
753.847	108969
754	108582
754.152	108725
754.305	108809
754.458	107827
754.611	107147
754.764	107881
754.916	108569
755.069	108334
755.222	108306
755.374	106663
755.527	105687
755.68	107234
755.832	107171
755.985	107481
756.137	107992
756.289	108241
756.442	108381
756.594	107767
756.746	106031
756.899	105524
757.051	107200
757.203	106327
757.355	105153
757.508	106339
757.66	106861
757.812	106830
757.964	106688
758.116	105924
758.268	103826
758.42	102100
758.572	101581
758.724	103170
758.875	104540
759.027	104266
759.179	97475
759.331	71936
759.482	48795
759.634	40478
759.786	35704
759.937	29255
760.089	24041
760.241	21371
760.392	19984
760.544	20103
760.695	22501
760.846	24504
760.998	30095
761.149	33563
761.3	44455
761.452	49154
761.603	65446
761.754	82662
761.905	78980
762.057	68506
762.208	58755
762.359	49763
762.51	55141
762.661	43753
762.812	50820
762.963	50329
763.114	42581
763.265	56731
763.415	48641
763.566	47329
763.717	62628
763.868	51183
764.018	52443
764.169	69097
764.32	57676
764.47	57187
764.621	74626
764.772	67817
764.922	60854
765.072	77287
765.223	79133
765.373	66459
765.524	75834
765.674	84239
765.824	74998
765.975	72108
766.125	85921
766.275	87530
766.425	77292
766.575	84068
766.726	93524
766.876	91945
767.026	85733
767.176	91284
767.326	97339
767.476	96432
767.625	91339
767.775	94571
767.925	96553
768.075	97541
768.225	94796
768.375	96964
768.524	100010
768.674	100293
768.824	96875
768.973	95215
769.123	96113
769.272	99180
769.422	99208
769.571	97690
769.721	97126
769.87	96606
770.019	99658
770.169	100157
770.318	100417
770.467	101422
770.617	101716
770.766	101234
770.915	98782
771.064	98021
771.213	98049
771.362	95944
771.511	97166
771.66	98574
771.809	99131
771.958	99214
772.107	98623
772.256	98122
772.405	98978
772.554	98443
772.702	97705
772.851	99107
773	99306
773.149	99264
773.297	99002
773.446	99318
773.594	99804
773.743	99991
773.891	99705
774.04	99019
774.188	96579
774.337	97610
774.485	97947
774.633	97034
774.782	94127
774.93	95873
775.078	97046
775.226	98762
775.375	98908
775.523	99084
775.671	99050
775.819	98440
775.967	97949
776.115	98686
776.263	98559
776.411	98562
776.559	98697
776.707	98632
776.854	98761
777.002	97448
777.15	95949
777.298	95652
777.445	95024
777.593	96285
777.741	97104
777.888	95017
778.036	94224
778.183	96239
778.331	97153
778.478	97420
778.626	97605
778.773	95440
778.92	96169
779.068	97119
779.215	97791
779.362	97742
779.51	97264
779.657	95418
779.804	95095
779.951	94559
780.098	95428
780.245	95971
780.392	96331
780.539	96110
780.686	94886
780.833	94796
780.98	93880
781.127	94285
781.274	95108
781.42	95568
781.567	95764
781.714	95844
781.861	95665
782.007	95683
782.154	95563
782.3	95324
782.447	95177
782.594	95262
782.74	95247
782.887	95107
783.033	93303
783.179	91288
783.326	92808
783.472	91702
783.618	92792
783.765	93558
783.911	94143
784.057	94281
784.203	94097
784.349	94050
784.495	93824
784.641	93796
784.787	93475
784.933	92350
785.079	92865
785.225	92828
785.371	92185
785.517	92118
785.663	92386
785.809	92665
785.954	92098
786.1	92048
786.246	92034
786.391	90974
786.537	90024
786.683	91185
786.828	90771
786.974	90204
787.119	90924
787.265	90784
787.41	90549
787.555	88253
787.701	89169
787.846	89611
787.991	88582
788.137	89379
788.282	90371
788.427	90005
788.572	88340
788.717	88348
788.862	88218
789.007	87094
789.152	86103
789.297	85194
789.442	82667
789.587	83343
789.732	87262
789.877	87907
790.022	85307
790.166	84348
790.311	86908
790.456	88629
790.601	88452
790.745	84907
790.89	83245
791.034	84764
791.179	85220
791.323	86427
791.468	85962
791.612	84642
791.757	84045
791.901	84553
792.045	84365
792.19	86426
792.334	84884
792.478	85695
792.622	85732
792.767	82345
792.911	82030
793.055	82129
793.199	82401
793.343	85320
793.487	86401
793.631	84461
793.775	85257
793.919	86189
794.063	85125
794.206	83733
794.35	82122
794.494	80720
794.638	81384
794.781	82958
794.925	82617
795.069	81634
795.212	81471
795.356	80668
795.499	79905
795.643	78452
795.786	75806
795.93	73573
796.073	71971
796.217	69448
796.36	1715
796.503	1691
796.646	1689
796.79	1689
